,time,condition,epoch,S1_D1 hbo,S1_D1 hbr,S1_D2 hbo,S1_D2 hbr,S2_D1 hbo,S2_D1 hbr,S2_D2 hbo,S2_D2 hbr,S5_D4 hbo,S5_D4 hbr,S5_D5 hbo,S5_D5 hbr,S6_D4 hbo,S6_D4 hbr,S6_D5 hbo,S6_D5 hbr,S7_D7 hbo,S7_D7 hbr
0,-5.0,Inhale,0,-0.09045543607297267,0.11824292192824905,0.08838178435220015,-0.005176103870890672,0.1118909851348915,0.027706231305039606,0.03101895845079178,-0.03255483707619895,-0.13895279540981476,0.03536179472372172,-0.07239600145054668,-0.09912408419461555,-0.032534156235541706,0.006169704956491633,0.1408360282270226,-0.01843609524473129,-0.441807986385636,1.120735148779379
1,-4.666666666666667,Inhale,0,-0.03650746390509193,0.11460126141295009,0.06440986649886953,0.005136299335904719,0.09501999819434075,0.024026969154948737,0.04338261167238328,-0.05070024186228625,-0.13593709736180296,0.010099387586802261,-0.06430547941545069,-0.0816940087178646,-0.06822835083694964,0.006912418881078097,0.10086643462901664,-0.018116855891070063,0.26736723865766127,0.8198932903777628
2,-4.333333333333333,Inhale,0,0.003205482264127964,0.10511142851218985,0.04175889585738767,0.011551149926246534,0.07964286312015577,0.020449731844682906,0.03539617644432337,-0.05560810544695625,-0.11686137521404479,-0.009434014083668566,-0.05289471328201299,-0.05226827191913118,-0.09114736333540044,0.005081503884818732,0.05920309833852814,-0.015935286903009736,0.5469657980316577,0.9273422897162114
3,-4.0,Inhale,0,0.02922266524922576,0.09133952056406865,0.019524348461451957,0.01460751667525939,0.06513694753788238,0.01671221279262931,0.010324448435252822,-0.045867588102042764,-0.0810300515973967,-0.024677442843137727,-0.03783089114296203,-0.014356447324616066,-0.1042409015482496,0.002305854650204322,0.013978171814939828,-0.010333910286822545,0.36720045649594885,1.346491304994118
4,-3.6666666666666665,Inhale,0,0.04256197261256648,0.07500271652632266,-0.002954275874333381,0.015391185625468456,0.050279945610195095,0.012526593118529133,-0.02399862311860167,-0.0252706361689167,-0.03411655570465074,-0.03790112216040073,-0.022101082559081213,0.025871880460020546,-0.11164088082971087,0.0010775943026075374,-0.034054304950920385,-0.0013419164449365863,-0.15615493572377165,1.8459575759295417
5,-3.3333333333333335,Inhale,0,0.04478096253668961,0.057485921820961586,-0.02565380685092743,0.015202516028126084,0.033913526900981095,0.0077987090666167035,-0.057082229701055254,-0.001416326997469667,0.012649396044364419,-0.05036360356040081,-0.010300781867457804,0.06129042764990567,-0.11661142225255249,0.003371321643718104,-0.08144678666677392,0.00956179057486069,-0.7680431305147261,2.1168581306729126
6,-3.0,Inhale,0,0.03817597792255764,0.039548405958446435,-0.0474564114652923,0.01511610355290804,0.015594814941903684,0.0027247682501001925,-0.07998809926377244,0.01858255757984737,0.047089274367429,-0.06077060922540602,-0.005105589984752151,0.08560273977803481,-0.11968637365156705,0.009718481521533068,-0.1227501041341819,0.020085049173185023,-1.1715258464877805,1.9030768374460363
7,-2.6666666666666665,Inhale,0,0.025865806553057497,0.021314331925653116,-0.06602879092337163,0.015610988074724707,-0.004033319635691662,-0.0022940581240926306,-0.08835118059509366,0.0309393748112263,0.061713530883881984,-0.06552669249922041,-0.0051287040422868,0.09489716345974276,-0.1176789908478947,0.018548940907202976,-0.15163045114744428,0.027924137966968868,-1.203719580255005,1.1542335268066493
8,-2.3333333333333335,Inhale,0,0.011502475014926091,0.002476333364657417,-0.07819420170688748,0.01637234956655481,-0.02338170403931727,-0.006813669265500932,-0.08225450562063176,0.03491375233507544,0.05675422336146552,-0.06031882128027662,-0.006027438812117513,0.08863002413437267,-0.1044503930247795,0.026004735776799917,-0.16217430581581996,0.03145667236356538,-0.9389020449876733,0.07489498563465519
9,-2.0,Inhale,0,-0.00135073887487304,-0.017439622011370202,-0.08067732369338097,0.016307320293773735,-0.04048288399234009,-0.010465123738291346,-0.0642687838848037,0.03185214239659938,0.03924416514933752,-0.041912969276670244,-0.0032896116321098415,0.06942596945353934,-0.07352417810348882,0.027139798801100016,-0.15013851383044158,0.030044823392903718,-0.5933625547494717,-0.9918516896338794
10,-1.6666666666666667,Inhale,0,-0.009998944583159836,-0.03885905483595292,-0.07102682615549823,0.013808981677922156,-0.05368052391543209,-0.0130333610486663,-0.03746197355402183,0.024757157193868142,0.019467574561738456,-0.00999863974986053,0.005600073831416383,0.04174562569140629,-0.02166459098564491,0.018752980014827433,-0.11402004768869106,0.023879710560437528,-0.3158599550674915,-1.7567625366595085
11,-1.3333333333333333,Inhale,0,-0.013348622586884169,-0.06201925629738609,-0.04846586965349392,0.007231707844603383,-0.062182575930386945,-0.014532652993191154,-0.004283874537619997,0.017083249499589243,0.00736942717299945,0.03071073698182687,0.020414995030476613,0.010355770151045803,0.04836952573881634,0.0020285336350088987,-0.05581226886287023,0.013629351033272325,-0.07332397636155277,-2.106991955238808
12,-1.0,Inhale,0,-0.012292559648057474,-0.08688484857728518,-0.014329564351248764,-0.004591496687202268,-0.0663083260883034,-0.015242935242525188,0.032892075405470525,0.011182367929442856,0.010756331000740025,0.06916601444795914,0.03872250503500827,-0.02066478699110502,0.12783582480002437,-0.017548944536800993,0.01887860776989384,0.00021870551779174237,0.27324535485329526,-2.0944214399671353
13,-0.6666666666666666,Inhale,0,-0.009504510546413094,-0.11310703523954689,0.028067866021445526,-0.021989608032341082,-0.06733871031918233,-0.01565005675846274,0.06982029987676398,0.008606510102229646,0.03450139961612694,0.0902913426361638,0.05719411668955425,-0.04842010255610265,0.2049588547581013,-0.03314078708166727,0.10164391725678326,-0.01518420393656725,0.8025793452345156,-1.8409075844030467
14,-0.3333333333333333,Inhale,0,-0.008639843732400659,-0.1400340901837145,0.07406186633051792,-0.04434543718066779,-0.06703329275193558,-0.01629683140436388,0.09958933311476158,0.011514803217926802,0.07898750927248419,0.08206796490985542,0.07297578439606063,-0.07146379809650896,0.26875416562994237,-0.03989950146090094,0.1828991841900725,-0.031176609839389323,1.4342883446926409,-1.461335739563633
15,0.0,Inhale,0,-0.013217222203298061,-0.16677893486824322,0.1185824431525614,-0.07023347283039022,-0.06703774476776084,-0.017616526957452413,0.11526536687585308,0.021985820588065426,0.13836504385714235,0.043206673392712294,0.08447281920626142,-0.08982810097812385,0.3114892307248951,-0.036522635896021574,0.2537213408708866,-0.04627536203645868,1.9710534725673854,-1.057212144891255
16,0.3333333333333333,Inhale,0,-0.02561111385116799,-0.1923335113272839,0.15717307788447443,-0.09774959967329308,-0.06846454393242096,-0.019805203734275075,0.11425884620621805,0.0394097506121003,0.2007981721327275,-0.01465919865182444,0.09104694658007878,-0.10464218232275631,0.32933451688286647,-0.024760770139849352,0.3071866211133039,-0.059146167024849754,2.2383571591104765,-0.7416097925342753
17,0.6666666666666666,Inhale,0,-0.046474339627800634,-0.21570172218487485,0.18684111408113424,-0.12490904673345198,-0.07179978712749482,-0.022744957821567047,0.10018799174121247,0.059683841817555684,0.25154308885139504,-0.07205741043309734,0.09172172739220581,-0.11746039666686776,0.32220681500353016,-0.007932400515944725,0.33893041608135954,-0.068802186389765,2.1945804920742282,-0.6142723730001909
18,1.0,Inhale,0,-0.0746736008128629,-0.23601520229672962,0.20652767557799648,-0.14994450449043012,-0.07700481681246876,-0.02602566923090215,0.08065175746920963,0.07743973841233935,0.2775994869404146,-0.11069782076223822,0.08407978679850805,-0.12979108666824984,0.2936476100908343,0.010314192891194151,0.347148346910105,-0.07475721784059916,1.9232085682789994,-0.6756244913745181
19,1.3333333333333333,Inhale,0,-0.10761983678088909,-0.2526143367996065,0.21711520898336603,-0.1714277807769161,-0.08352212967888124,-0.029139038570403963,0.06346601099674314,0.08851552007108622,0.27179045150870157,-0.12110267511530882,0.06472057713374435,-0.14307550345017547,0.2507174712288113,0.026468080403125396,0.3325100458226855,-0.07713849269654016,1.5608881283497207,-0.7843073707252473
20,1.6666666666666667,Inhale,0,-0.14181827141636996,-0.26510218694207416,0.22104965456000344,-0.18831047365351883,-0.09014431090528077,-0.031760774633878025,0.05434435469590389,0.09076776569248818,0.2347677115031303,-0.10491710230545355,0.031188334947574087,-0.1587294242032153,0.2032264914633588,0.03743167105834026,0.2983088519699058,-0.07669667724899305,1.2375907206997763,-0.7416601536964269
21,2.0,Inhale,0,-0.17358264496798317,-0.27337080195076774,0.22164936908182337,-0.2000213477715392,-0.0951094175812855,-0.033854223245147856,0.05641769630314754,0.08432640938024527,0.17452943730552697,-0.07148461949130054,-0.016247609896926033,-0.17775919358748454,0.1616258967364541,0.041393617985438974,0.25064675382145835,-0.07463778620450255,1.0137573519587992,-0.43247105966583826
22,2.3333333333333335,Inhale,0,-0.19979593390262312,-0.27758741667754233,0.22231444354859015,-0.20662015554303723,-0.0966664191437246,-0.035472094456786805,0.07071072891446788,0.071811395186315,0.10411459509190273,-0.03180345058896353,-0.07422299742510066,-0.20002711359061293,0.13423033059094797,0.0388608928696532,0.19820556197415098,-0.07238794425606697,0.8289628504775256,0.1062853650117582
23,2.6666666666666665,Inhale,0,-0.21843764552732117,-0.2781638436143295,0.22597963103547894,-0.20889399911967152,-0.0937793071570411,-0.036486136018971285,0.09714179854850018,0.057032905582297254,0.03895183567243249,0.005818450857936111,-0.13706162520027618,-0.22369409631754106,0.1256278715873548,0.032522594043038075,0.15126456617701112,-0.07144277467248557,0.5453187273662121,0.7264202909117535
24,3.0,Inhale,0,-0.2288296824632181,-0.2757629494103368,0.23484047185006857,-0.20830734869263548,-0.08647966846650391,-0.03654451858805736,0.13505383459103665,0.04262136125950807,-0.005613971715665992,0.036572545872901555,-0.1978338550693154,-0.24536532611787978,0.1370993467772572,0.025573347795930526,0.11982739976250564,-0.07318905247935814,0.06871444177355565,1.270961325644402
25,3.3333333333333335,Inhale,0,-0.23184519673976842,-0.2713447500446888,0.2501834954745005,-0.2067899178154281,-0.07578289023980063,-0.035285135425805324,0.18191516045107498,0.02964204688398315,-0.017619352991233947,0.058240398517456646,-0.24936571968246551,-0.2611911856906333,0.16788450476353706,0.0197096472733021,0.11135916650560136,-0.07859060234719693,-0.5902851640572874,1.6668671878658377
26,3.6666666666666665,Inhale,0,-0.23018242524992935,-0.26615267154118005,0.2722888722181922,-0.20639666447854987,-0.06337261478817131,-0.03261108686161348,0.23145202838420473,0.019358391225644544,0.007775298423363218,0.07034731640195532,-0.28549627858484794,-0.2685678090621313,0.2155641882296583,0.014405318905018009,0.12913948322755756,-0.0879125126138474,-1.3682409664920343,1.9488794430329668
27,4.0,Inhale,0,-0.22836297449251544,-0.26151061453352603,0.3004124492637586,-0.20891179494495513,-0.051158132857603296,-0.028837091987201607,0.2744881861189782,0.013596330304080128,0.06678971010039311,0.0726946517338053,-0.3026942751886096,-0.26741878169669936,0.2752542838248679,0.00793161911535247,0.17172808995064343,-0.10065270975156433,-2.2024638157199488,2.2009309371604755
28,4.333333333333333,Inhale,0,-0.23184532121358684,-0.2584326174969323,0.33284761231670057,-0.21550224641761995,-0.040709656736598626,-0.024629440495581887,0.30260416014407693,0.012972767620252788,0.14864382431963571,0.06372837751375916,-0.3014148839141641,-0.26021727931571065,0.33910436814608413,-0.0009145660406325866,0.23330340658526844,-0.11565636653028388,-2.987825032239262,2.449107788204452
29,4.666666666666667,Inhale,0,-0.24511131066744105,-0.2572417807984109,0.3671260321942054,-0.22651903771630474,-0.03275114966153123,-0.020772145373096757,0.31109875634972967,0.016254990438811498,0.23778129750322083,0.04179705908853407,-0.2863574708537165,-0.2508780475425682,0.3974552420979282,-0.011782025583850617,0.30465941283094794,-0.13135995758477245,-3.4847041453667873,2.5636297530629513
30,5.0,Inhale,0,-0.26962553269382195,-0.2574466975243426,0.40038094492502435,-0.24147278583141335,-0.027012771262789188,-0.01785815097677337,0.2997379687168309,0.021664663438203717,0.3154614647987274,0.009240897233352462,-0.2653077455742794,-0.24323667715370345,0.44125890547515223,-0.023000667591210062,0.37493020708474434,-0.14611240991953928,-3.327241243130773,2.267502706065191
31,5.333333333333333,Inhale,0,-0.30317551300905726,-0.2579793215602419,0.4297597279137749,-0.2591392648942973,-0.022553884401370062,-0.016058010064010055,0.2728173701713957,0.027395525346141238,0.36295396054303125,-0.02589169002418961,-0.24692928987443277,-0.23976717400044326,0.4642560400801791,-0.03259301306066689,0.43382277893515014,-0.15842298641188646,-2.222996066022037,1.323747175619221
32,5.666666666666667,Inhale,0,-0.34143532065961074,-0.25767585338499255,0.452742948687124,-0.2777665217683158,-0.018407152414963913,-0.015118761692915128,0.23828801755173046,0.031222455408038842,0.36726226401283574,-0.05359621424226816,-0.23839483809203127,-0.2410261468825074,0.46387043189180976,-0.03923054261189797,0.4735475867847699,-0.16700904178680795,-0.21442197759074047,-0.22304772788739136
33,6.0,Inhale,0,-0.3807919722694272,-0.25572064848434495,0.46738006993760023,-0.2954034119221272,-0.014202328560569735,-0.014587504293769515,0.2043342865707778,0.03205540688683208,0.32558851626421986,-0.06741244618492431,-0.24392690764031,-0.24594417573470986,0.4408962047562913,-0.04273880711876894,0.4896398392977275,-0.17072516030601798,2.2413316308434874,-1.9899083191819635
34,6.333333333333333,Inhale,0,-0.4201951934465889,-0.25180933483475837,0.47252958617878293,-0.3103057149663909,-0.010364399935587493,-0.014086092599626279,0.17557619096070315,0.0324966738700488,0.24452511283214157,-0.06655243698242849,-0.26475298794544466,-0.25260154281784214,0.39854998164199834,-0.04409347954097179,0.4806553766335781,-0.1686193208439023,4.432886847109649,-3.426609230305924
35,6.666666666666667,Inhale,0,-0.46073563780857507,-0.2460297207725638,0.4680430381486431,-0.3212433611957214,-0.007792036540809446,-0.013502958894773657,0.1530019187307989,0.037778760836436893,0.13527251443850155,-0.054464515175948906,-0.29999957327920307,-0.2590055121479624,0.34129292346905044,-0.04492904731721356,0.44743594346568466,-0.1602761258871023,5.658497141683762,-4.047090062531241
36,7.0,Inhale,0,-0.5037288422345306,-0.2386621044809362,0.45477668897953655,-0.3275590145566925,-0.0073838822940260245,-0.013058901898504349,0.13702507621548524,0.05108435954479803,0.009462643093103962,-0.037019120474170955,-0.34762626228633386,-0.26347126235610624,0.273772850630961,-0.046887613639047185,0.3925969158259928,-0.14626285317582774,5.483836241231534,-3.603455752042539
37,7.333333333333333,Inhale,0,-0.5488990058396992,-0.23006717579334507,0.4344716367422703,-0.3290351708153379,-0.009791532150290216,-0.013192952138513061,0.12921458770315156,0.07086149338659524,-0.12227043123696217,-0.021617021394314456,-0.40482440035906203,-0.2645397787395391,0.20019496209559431,-0.0511473194345493,0.32037420875732847,-0.12822388881445354,3.930613335287188,-2.182177510049154
38,7.666666666666667,Inhale,0,-0.5937163946528478,-0.22067373856042155,0.409481202009794,-0.3257659853124094,-0.015412124119691267,-0.01428546732650908,0.1311376644892865,0.09253590665681058,-0.25046262969453653,-0.015708351937621903,-0.46801199846846625,-0.26091808219976825,0.12398539872058771,-0.05803902928511084,0.23636666153707062,-0.1083793552458524,1.4954994204573449,-0.1855028438641951
39,8.0,Inhale,0,-0.6340603572003414,-0.21099245236281558,0.38233221916307036,-0.3181662195266855,-0.02441032977075479,-0.01640744461200766,0.14276800997997843,0.11099280607043314,-0.3676591022106184,-0.023821793797695452,-0.5329588121700163,-0.2519043374650129,0.04768748106426208,-0.06691357718216945,0.14676393865563614,-0.08884363412551755,-1.0408758112450132,1.80715971620333
40,8.333333333333334,Inhale,0,-0.6655173511385719,-0.20159341990876115,0.35552697742403416,-0.3070995131613097,-0.03659495857665701,-0.019283613419559163,0.1619158080511345,0.12161714762214276,-0.4697836897610749,-0.04460821412550927,-0.5951667467309509,-0.23811389924696844,-0.026340075585649898,-0.07690443172652156,0.05757411055836575,-0.07149397904168575,-2.9228169661997576,3.2292922993351385
41,8.666666666666666,Inhale,0,-0.6845226958020627,-0.19302097720706166,0.3316601379678881,-0.2939903728563894,-0.051214302111010385,-0.02244339425393432,0.18374370938122878,0.12199117123710095,-0.5563386281350017,-0.07063930732313581,-0.6503471802330939,-0.22183005015196733,-0.09474414387664208,-0.08818623718152849,-0.0256044189711633,-0.058306629468953965,-3.721312248294377,3.7236308625263663
42,9.0,Inhale,0,-0.6891860853418919,-0.18565693961522653,0.3131766809209014,-0.2807376832523339,-0.0669527128428865,-0.025395829848325197,0.20094628043331647,0.11410740090111066,-0.6282357474604245,-0.09273493698946733,-0.694863177664535,-0.2064708469139014,-0.15320445529085291,-0.10202571417125557,-0.0976515494349668,-0.05127840350671804,-3.5074716525622223,3.2965431551149567
43,9.333333333333334,Inhale,0,-0.6797618175009306,-0.1795927293260582,0.3016564177188022,-0.269349095199024,-0.08222130107899837,-0.027739355997107366,0.20672283570975947,0.10314231988667409,-0.6843806811419995,-0.10660608411448524,-0.7257716835360881,-0.19537055207652357,-0.19809577927694338,-0.1191189694946968,-0.15419483236427964,-0.05169783136534674,-2.7810549643839337,2.312807662401196
44,9.666666666666666,Inhale,0,-0.6585876491245849,-0.17457458417825159,0.2971793603452146,-0.2614202405383434,-0.09555829401414112,-0.02922664191754964,0.19914877262405709,0.09277103308911037,-0.7201498842293783,-0.11613118101513989,-0.7406680278360996,-0.1905029129344772,-0.2281893943371289,-0.13804344313371478,-0.19211624466251018,-0.05938440675297632,-2.166929052994921,1.2914287679021519
45,10.0,Inhale,0,-0.6295714498936574,-0.17003443842241345,0.2980333132814499,-0.2576823001866137,-0.10599877002899917,-0.02981709493000578,0.18218572396158858,0.08276369493934875,-0.7295468592512816,-0.1302003243048146,-0.7382214589775653,-0.1916595526103736,-0.24494424546906837,-0.15559834118296526,-0.21035594600890226,-0.07240899759382956,-2.073047981595269,0.6434166108699559
46,10.333333333333334,Inhale,0,-0.5973994877355019,-0.1651862438635086,0.3009058707038511,-0.2577848437764271,-0.11331142525040382,-0.029719222744033325,0.16196010327802335,0.07153783869322884,-0.7092599635747652,-0.155913297337909,-0.7192370416167603,-0.19643831133793782,-0.2512301397371336,-0.16872406604621532,-0.21060714572620537,-0.08746941035514218,-2.5292428572992436,0.5276905310854699
47,10.666666666666666,Inhale,0,-0.5666533526243185,-0.15916474442123815,0.30158042871351626,-0.2603689181043696,-0.11799054648444021,-0.029386070695949947,0.14246438642430562,0.05926252840910821,-0.6614313243236272,-0.1933045689717325,-0.6870272199242635,-0.20116502255394994,-0.24949356363398495,-0.17636996969537905,-0.19731938970505475,-0.10078731774533957,-3.2707382846149953,0.8745978806370053
48,11.0,Inhale,0,-0.5410841542402008,-0.15118884779070269,0.2959080125734786,-0.26338949058614763,-0.1210229279192355,-0.029402709712060913,0.12442372659512566,0.04753406766766943,-0.5933348788968015,-0.23486304836953656,-0.6465763565451683,-0.20240965913133685,-0.2408243488435979,-0.1798058691576242,-0.1768624389969681,-0.10916868249345037,-3.944195218230528,1.4895115738906874
49,11.333333333333334,Inhale,0,-0.5231248686295236,-0.14073990435526795,0.2808864729162945,-0.2645968760059194,-0.12352468845097923,-0.030273726163615573,0.1065847014540119,0.0374748399760726,-0.5145661296574031,-0.2696169864400972,-0.6031881665002498,-0.1983041183359325,-0.22543551175348972,-0.1811000698612267,-0.15604209931927981,-0.11091355742229174,-4.2719767608891,2.1329981723446116
50,11.666666666666666,Inhale,0,-0.5136661086669452,-0.1277355161859776,0.2555440557514079,-0.2620534813895094,-0.12635295304727406,-0.03223291289724191,0.08733960272202253,0.02920034805575731,-0.43404561949835807,-0.28893945657959774,-0.5615021811936403,-0.18891542176403656,-0.20356840522055217,-0.18129715894104506,-0.14032646731625947,-0.106281738998166,-4.121742506447373,2.579137989318842
51,12.0,Inhale,0,-0.5121316921836534,-0.1126514932918386,0.2213024140513092,-0.25455941052532693,-0.12980733423409352,-0.03518893366481707,0.06622782006024616,0.02221967875444726,-0.3583035716710744,-0.29073887316881575,-0.5248097263866374,-0.17581035509025558,-0.17564345011678884,-0.18000394410039985,-0.13209192022530356,-0.09730255669894236,-3.5223293353965786,2.7008189556744395
52,12.333333333333334,Inhale,0,-0.5168636063485668,-0.09652258422881124,0.18169932924566365,-0.241918501779227,-0.13349110426649974,-0.038794555194084465,0.04484324441434331,0.015743695755206857,-0.2908872540104431,-0.2797634701557795,-0.49430020274691966,-0.16161024668976315,-0.14189150287046026,-0.1762094012781404,-0.12957189689748008,-0.08690214340979235,-2.6476170141150264,2.532992089383839
53,12.666666666666666,Inhale,0,-0.5258748133013922,-0.08077770068960449,0.14143858779895555,-0.22500045620874368,-0.13636960143667395,-0.04255179743520797,0.02605101661831423,0.009548535510325355,-0.23271248509173417,-0.2639524484132298,-0.4688699549351474,-0.14964753495326438,-0.1022405562583788,-0.16925600217828235,-0.12755621588120494,-0.07762603707820688,-1.7477765759461255,2.2201381414093726
54,13.0,Inhale,0,-0.5377191416181123,-0.06694354047948799,0.10516595941283816,-0.205546507759419,-0.13701801938767305,-0.045903217367944255,0.0120534891965841,0.005031672318537437,-0.18320529350578157,-0.24958125520641566,-0.4461307639980874,-0.14315026848251086,-0.05631878153854155,-0.15948322594527453,-0.11970987356376091,-0.07074269253826336,-1.0401634708003682,1.889463603519856
55,13.333333333333334,Inhale,0,-0.5519301485209156,-0.056303296510737046,0.07655774113117894,-0.18574892940955592,-0.13400923347007526,-0.04832275689022658,0.0033917437459331087,0.004422043400180758,-0.14164877320159747,-0.23868226108774065,-0.4239575786220318,-0.14410782571743705,-0.003548513571994978,-0.14829541252275708,-0.10101136869222006,-0.06634558687796048,-0.6235993517826074,1.5874329472384237
56,13.666666666666666,Inhale,0,-0.5688322833323933,-0.04959436713980182,0.057810535310256414,-0.16775656670819086,-0.12640666009773308,-0.049414522549710425,-0.0006206240445075335,0.008404703470441095,-0.10812136152243969,-0.229818229191789,-0.401516295490517,-0.1526749519928374,0.056316662199978135,-0.13770132523189235,-0.06902608250066355,-0.06409543032052505,-0.45298552296015815,1.3058653491600059
57,14.0,Inhale,0,-0.5889593583319,-0.04682053995374385,0.04942144481459267,-0.15327704179952045,-0.11423492286902683,-0.04899082142574127,-0.0017188709359637786,0.015483637903003153,-0.08346154486466338,-0.22062870182236965,-0.37948909955095933,-0.16738965002654035,0.12261400173554167,-0.1298209543248822,-0.02375660219909481,-0.06378809358880302,-0.3677044597955272,1.0081754699427514
58,14.333333333333334,Inhale,0,-0.6124369335452404,-0.04724177878870505,0.0502810984283938,-0.14335745674820227,-0.09865593265104565,-0.047121118830237244,-0.0030720902032055583,0.024030450809542855,-0.06857811287128586,-0.20966013126351488,-0.35976368074501025,-0.18580813484112324,0.19348716602261984,-0.12631265671309033,0.03324665348691917,-0.06540356647397472,-0.17292075422698872,0.6240865492282258
59,14.666666666666666,Inhale,0,-0.638675167318637,-0.04956049272921053,0.058049879098751075,-0.13832535331290496,-0.08169158910760493,-0.04416612879468228,-0.008182181015262748,0.03346214430132398,-0.0643520760162024,-0.19594778161187892,-0.34480266482190614,-0.2051892338080461,0.2654572767230209,-0.1273196338316428,0.0993871801045283,-0.06893976422445251,0.24458540665849227,0.07323653871675481
60,15.0,Inhale,0,-0.6665617821557693,-0.05225638416550468,0.06966155952774747,-0.13782987664120616,-0.0656701696300009,-0.04076419124511851,-0.01820282411807424,0.04260627964464241,-0.07195871964209061,-0.17754251805428553,-0.33694841125841035,-0.22295032814718452,0.33279836288656883,-0.13044661792104761,0.17045358990878354,-0.07446909109793858,0.825022983246123,-0.6437369482347385
61,15.333333333333334,Inhale,0,-0.695082913848213,-0.0539599115577686,0.08172935168205786,-0.14092796043277347,-0.05271357849656246,-0.03770662852163505,-0.030883635026370836,0.048535670934722164,-0.09186412622254887,-0.1519120014136719,-0.3380433103439866,-0.23681371021111308,0.3875813787725203,-0.1310617410612469,0.23949524712351378,-0.08236864015353587,1.3276465545722171,-1.3543929086422788
62,15.666666666666666,Inhale,0,-0.7240391203462838,-0.053724243119050594,0.09075745952127448,-0.14618100853995436,-0.04437132326778948,-0.03570944909056687,-0.04276855109845479,0.048569136837470245,-0.12166649988735381,-0.11871366045193756,-0.3494185713232397,-0.24506705941452367,0.4213463606464759,-0.12461711528417599,0.2966956739163773,-0.0932663160261495,1.433960253985303,-1.7478204189792008
63,16.0,Inhale,0,-0.7543614384526656,-0.051095360946334725,0.09336666154537901,-0.15177435715691082,-0.041318033297739865,-0.03518940331906117,-0.052104375627583056,0.042868687297731405,-0.15549428190581713,-0.08192024644104053,-0.37187570334026754,-0.24727205132067143,0.4282301791664883,-0.1098282119174457,0.33135467044781924,-0.10755017840264626,0.9175781933291506,-1.5472814296209783
64,16.333333333333332,Inhale,0,-0.7876884605787592,-0.04600222589268867,0.08681845551534233,-0.15572151189878386,-0.04315404347567977,-0.036149978966024,-0.05958962307035795,0.034277275184561626,-0.18606879440210214,-0.049011600614800914,-0.4053283444301387,-0.24496547205095373,0.40775748063064415,-0.09012598948867732,0.33526865583417276,-0.12488174787202243,-0.2336575463485383,-0.6832688100851014
65,16.666666666666668,Inhale,0,-0.8253094591673289,-0.038605375967856105,0.06982024573951881,-0.1561930394154896,-0.04851575343890042,-0.038202399075471793,-0.06732015607170574,0.026184732688473315,-0.20734133672947985,-0.028153929034798346,-0.4480819129748537,-0.24167254356117307,0.3652662307927304,-0.07186865889140368,0.30561593847800017,-0.1442182274625012,-1.8063518335719366,0.6588186289141376
66,17.0,Inhale,0,-0.8669461584472407,-0.029231492756153582,0.04324919234451726,-0.15192160493435042,-0.05553510019606677,-0.040713839337179994,-0.07763695414495199,0.020808560168672864,-0.2157898437893308,-0.025259615879270236,-0.4961332246911932,-0.24202061522365242,0.30971831301367353,-0.06064491534563896,0.24607333145882546,-0.16432822755047552,-3.4202903963397167,2.1081975568911053
67,17.333333333333332,Inhale,0,-0.9100059267918162,-0.018399806514676573,0.010266929074830148,-0.1425647440104385,-0.062375803337649374,-0.04303568706971939,-0.09211079357726268,0.01826775577562962,-0.2106319017679212,-0.04208388997826142,-0.5433893627896602,-0.2499417704851137,0.2505386616145255,-0.05855540154390111,0.16601891895945195,-0.18422785420513058,-4.6156699863830974,3.2222672293529064
68,17.666666666666668,Inhale,0,-0.9497828331587646,-0.006857089944527126,-0.02440869912727915,-0.12889102653010695,-0.06756810256212757,-0.04467013781950983,-0.11052559196680768,0.016462316040462856,-0.19361564648348717,-0.07592626398557857,-0.5832790115887299,-0.2663983529022059,0.19541432830964914,-0.06418898455778743,0.07822922981256643,-0.2030744915282751,-4.978079304242241,3.615047813092609
69,18.0,Inhale,0,-0.9804905329647472,0.004452065550897447,-0.05553486309857431,-0.11269029753355084,-0.07009126133704414,-0.045281118727589005,-0.1309209446567953,0.012794163814882659,-0.16829146027566141,-0.12049585247248704,-0.6106240359997742,-0.2882407864497364,0.1498781604541545,-0.07466832559435797,-0.004098252264905056,-0.2199312110585802,-4.300555082308112,3.107896930404993
70,18.333333333333332,Inhale,0,-0.996693819095629,0.014518985378685718,-0.07814627086584723,-0.0963924989364291,-0.0693782311444817,-0.04466770369167801,-0.15121311466122017,0.006784356904406457,-0.13923382538405252,-0.1668713574097279,-0.6225076968084008,-0.30958665468274,0.11772852241965356,-0.0878395799600924,-0.07020577235545666,-0.23402881031027703,-2.715129165386425,1.8486406348731839
71,18.666666666666668,Inhale,0,-0.9948412008438033,0.022511093224843588,-0.08838649011551948,-0.0824961352681503,-0.06547501270102622,-0.04284911075318854,-0.17082230984681873,0.00022781570779169355,-0.11194636676009274,-0.20492825155029976,-0.6185038903108386,-0.3248756290356115,0.10065875464736505,-0.10309365328477563,-0.11412206647235681,-0.24518105773608562,-0.6868384880473191,0.28743232991837925
72,19.0,Inhale,0,-0.9743035025997895,0.02802793520448619,-0.08437909502875379,-0.07301721526243918,-0.059230382831217336,-0.040167635016505325,-0.1907805726343985,-0.005469957791210788,-0.09220190688608522,-0.22695690744382324,-0.6007953851841437,-0.3314697149583788,0.09717418685117574,-0.120617320091775,-0.1357271798968339,-0.25368631443710166,1.1672338500834987,-1.014550913774469
73,19.333333333333332,Inhale,0,-0.9372837384988628,0.031221295365152498,-0.0666385996042203,-0.06914987601025438,-0.052128256378228315,-0.037209843853260954,-0.21310807630032635,-0.01058055445575876,-0.08364877059067093,-0.23261477987668946,-0.5738762804729648,-0.3303263952945827,0.10221011317993751,-0.13991571569315567,-0.13985753951486513,-0.259797003191048,2.3459304097576474,-1.630319969240176
74,19.666666666666668,Inhale,0,-0.8878598567486073,0.03271246773258168,-0.03797455891122,-0.07114543485869752,-0.045773018528148635,-0.034561758273369964,-0.24060285723177982,-0.015055128257664948,-0.08597153416060023,-0.23043485020612886,-0.5437471004148551,-0.3244945600796795,0.10812982023775906,-0.15884669142959054,-0.1339877264938406,-0.2632980204766891,2.6734734402919136,-1.4327344947377045
75,20.0,Inhale,0,-0.8308240883711991,0.03337570303293776,-0.0029806732569399243,-0.07830978112399653,-0.04141315917002962,-0.03259825359352694,-0.27592819201001506,-0.017188939078120486,-0.09606662581040976,-0.23299455578406342,-0.5167180186636722,-0.31661457858984743,0.10702494179681253,-0.17418105901780925,-0.12556911763046907,-0.2636004886802189,2.3393470063867015,-0.615206265431976
76,-5.0,Exhale,1,0.1592008451123543,0.06371401521664537,-0.10823253342234382,0.0973076483612733,-0.001195075135360589,0.00818752610847943,-0.05113781940645257,-0.007621087092340485,0.03390648400849608,-0.002523306767282228,0.21605784523083021,0.10109664751391072,0.0631786491966901,-0.03436249135286429,0.050750926816278956,0.03253544822341594,2.524130783669154,-1.5250089632581822
77,-4.666666666666667,Exhale,1,0.13833761933572167,0.040345804359054424,-0.07856449722568405,0.0701482013011144,-0.004530318330434452,0.005247772021187459,-0.06520867387145814,0.0126530041131149,0.0846514007271636,-0.05992151854855513,0.21673262604295726,0.08827843316979926,0.05605094731735379,-0.017534121728959656,0.08249472178433458,0.022879428858500694,2.4803541166329057,-1.3976715437240979
78,-4.333333333333333,Exhale,1,0.1101383581506594,0.020032324247199643,-0.05887793572882177,0.04511274354413624,-0.009735348015408395,0.0019670606118523566,-0.08474490814346099,0.03040890070789856,0.11070779881618319,-0.098561928877696,0.2090906854492595,0.07594774316841717,0.027491742404657904,0.0007124716781792201,0.09071265261308005,0.016924397407666533,2.2089821928376767,-1.4590236620984252
79,-4.0,Exhale,1,0.0771921221826332,0.0034331897443227633,-0.04829040232345222,0.023629467257650315,-0.016252660881820872,-0.0011463087276494582,-0.10193065461592747,0.04148468236664544,0.10489876338447017,-0.10896678323076661,0.18973147578449578,0.06266332638649157,-0.015438396457365118,0.016866359190110463,0.07607435152566057,0.01454312255172553,1.846661752908398,-1.5677065414491542
80,-3.6666666666666665,Exhale,1,0.04299368754715234,-0.009054660398144907,-0.044355956746814834,0.006746774381047527,-0.022874842108220404,-0.003768044791123517,-0.11105231091676673,0.043736927988047396,0.06787602337889888,-0.09278121042091134,0.15619923359832552,0.04700940563345172,-0.06292937622281755,0.027829949845325334,0.04187315767288086,0.014984937999272635,1.5233643452584535,-1.525059324420334
81,-3.3333333333333335,Exhale,1,0.01122931399553913,-0.01732327540683852,-0.04375624222499489,-0.004964099736972814,-0.027839948784225122,-0.005861493402393348,-0.10897896930952308,0.03729557167580448,0.007637749181295539,-0.05934872760675833,0.1087632887538254,0.027979636249182493,-0.10452997094972227,0.03179189677242404,-0.005788940475566616,0.017043829043763146,1.2995309765174765,-1.215870230389745
82,-3.0,Exhale,1,-0.01498397493910083,-0.02153989013361306,-0.04309116775822812,-0.011562907508470863,-0.029396950346664234,-0.007479364614032303,-0.09468593669820273,0.024780557481874223,-0.0627770930323287,-0.019667558704421318,0.05078790122565077,0.0057117162460541045,-0.1319255370952284,0.029259171656638265,-0.05823013232287397,0.019293670992198718,1.1147364750362028,-0.6771138057121489
83,-2.6666666666666665,Exhale,1,-0.03362568656379888,-0.02211631707040024,-0.03942598027133933,-0.013836751085105136,-0.02650983835998073,-0.00849340617621678,-0.06825486706417044,0.010002067877856466,-0.12793985245179895,0.017954342742478323,-0.012050726549524753,-0.017955266480874033,-0.14052799609882158,0.022920872830023146,-0.10517112812001385,0.020238840575780122,0.8310923519248893,-0.056978879812153486
84,-2.3333333333333335,Exhale,1,-0.0440177234996958,-0.01971542286640751,-0.03056513945674968,-0.013250100658069103,-0.01921019966944355,-0.008551788745302855,-0.030342831021633956,-0.004409476444932712,-0.1725056598398974,0.04870843775744377,-0.07282295641856394,-0.03962649628121274,-0.12905652090891914,0.015971626582915593,-0.1366082945345193,0.018492562768907556,0.35448806633223284,0.4875621549204949
85,-2.0,Exhale,1,-0.04703323777624612,-0.015297223500759521,-0.015222115832317784,-0.011732669780861722,-0.008513421442740267,-0.007292405583050818,0.01651849483840436,-0.017388790820457637,-0.18451104111546537,0.07037629040199886,-0.12435482103171404,-0.05545235585396627,-0.09827136292263933,0.010107926060287169,-0.1450765277914236,0.013091012901068764,-0.3045115394986101,0.8834680171419307
86,-1.6666666666666667,Exhale,1,-0.04537046628640705,-0.010105144997250763,0.00688326091137394,-0.01133941644398347,0.003896854008889053,-0.004618357018858977,0.0660553627715341,-0.027672446478796242,-0.15911638970086822,0.08248320828649754,-0.1604853799340965,-0.0628289792254643,-0.050591679456518074,0.004803597692003076,-0.1272962110694674,0.003769102634418292,-1.0824673419333568,1.1654802723090596
87,-1.3333333333333333,Exhale,1,-0.04355101552899314,-0.005463087989596743,0.03500683795694038,-0.01385454691038873,0.01611133593945707,-0.0008443621444471031,0.10909152050630758,-0.03343450740036066,-0.10010197802383831,0.0848305436183475,-0.17768337653785815,-0.06167995186003233,0.00909841613869154,-0.0016701020976624625,-0.08470760434638153,-0.008971094503298638,-1.9166901911612715,1.4175317664365683
88,-1.0,Exhale,1,-0.04703336225006455,-0.0023850909530030292,0.06744200100988229,-0.020444998383053577,0.026559812060461742,0.003363289347172621,0.13720749453140635,-0.034058070084188,-0.018247863804595723,0.07586426939830138,-0.17640398526341267,-0.054478449479043595,0.07294850045990778,-0.010516287253647519,-0.023132287711756527,-0.02397475128201819,-2.7020514076805844,1.6657086174805449
89,-0.6666666666666666,Exhale,1,-0.060299351703918716,-0.0011942542544816775,0.10172042088738716,-0.03146178968173834,0.034518319135529135,0.007220584469657748,0.14570209073705906,-0.030775847265629284,0.07088960937898942,0.05393295097307628,-0.16134657220296503,-0.0451392177059012,0.13129937441175182,-0.021383746796865548,0.048223718533923016,-0.039678342336506744,-3.19893052080811,1.780230582339044
90,-0.3333333333333333,Exhale,1,-0.08481357373029964,-0.0013991709804133522,0.1349753336182061,-0.04641553779684697,0.04025669753427118,0.01013457886598114,0.13434130310416031,-0.025366174266237065,0.14856977667449597,0.021376789117894673,-0.14029684692352795,-0.03749784731703642,0.17510303778897582,-0.032602388804224995,0.11849451278771937,-0.05443079467127357,-3.0414676185720957,1.4841035353412846
91,0.0,Exhale,1,-0.11836355404553496,-0.0019317950163126282,0.16435411660695665,-0.06408201685973092,0.0447155843956903,0.01193471977874445,0.10742070455872511,-0.019635312358299545,0.19606227241879984,-0.0137557981396474,-0.12191839122368135,-0.0340283441637762,0.1981001723940027,-0.042194734273681825,0.17738708463812516,-0.06674137116362076,-1.9372224414633594,0.540348004895314
92,0.3333333333333333,Exhale,1,-0.15662336169608845,-0.0016283268410632818,0.1873373373803057,-0.08270927373374941,0.048862316382096455,0.01287396814983938,0.07289135193905984,-0.015808382296401944,0.20037057588860432,-0.04146032235772595,-0.11338393944127985,-0.035287317045840386,0.19771456420563338,-0.0488322638249129,0.21711189248774493,-0.07532742653854226,0.07135164696793674,-1.0064468986112984
93,0.6666666666666666,Exhale,1,-0.19598001330590487,0.0003268780595843286,0.201974458630782,-0.10034616388756085,0.05306714023649063,0.013405225548984991,0.03893762095810718,-0.014975430817608701,0.15869682813998845,-0.0552765543003821,-0.11891600898955854,-0.040205345898042824,0.174740337070115,-0.052340528331783875,0.2332041450007025,-0.07904354505775227,2.5271052554021645,-2.7733074899058705
94,1.0,Exhale,1,-0.2353832344830666,0.00423819170917089,0.20712397487196468,-0.11524846693182456,0.056905068861472875,0.013906637243128227,0.010179525348032523,-0.014534163834391985,0.07763342470791014,-0.054416545097886286,-0.13974208929469323,-0.04686271298117511,0.13239411395582196,-0.053695200753986726,0.22421968233655318,-0.0769377055956366,4.7186604716683265,-4.210008401029832
95,1.3333333333333333,Exhale,1,-0.2759236788450528,0.010017805771365441,0.2026374268418249,-0.126186113161155,0.05947743225625092,0.01448977094798085,-0.012394746881871707,-0.009252076868003889,-0.031619173685729876,-0.04232862329140669,-0.1749886746284516,-0.0532666823112954,0.07513705578287408,-0.05453076853022849,0.19100024916865974,-0.0685945106388366,5.94427076624244,-4.830489233255149
96,1.6666666666666667,Exhale,1,-0.31891688327100837,0.01738542206299306,0.1893710776727183,-0.13250176652212614,0.05988558650303434,0.01493382794425016,-0.02837158939718537,0.004053521840357243,-0.15742904503112748,-0.024883228589628745,-0.22261536363558243,-0.05773243251943922,0.007616982944784622,-0.05648933485206212,0.13616122152896784,-0.05458123792756204,5.769609865790211,-4.386854922766446
97,2.0,Exhale,1,-0.3640870468761768,0.025980350750584188,0.16906602543545204,-0.13397792278077153,0.05747793664677015,0.014799777704241445,-0.03618207790951906,0.023830655682154454,-0.2891621193611936,-0.009481129509772243,-0.2798135017083106,-0.0588009489028721,-0.06596090559058207,-0.06074904064756423,0.06393851446030352,-0.03654227356618784,4.216386959845866,-2.965576680773061
98,2.3333333333333335,Exhale,1,-0.4089044356893255,0.03537378798350772,0.14407559070297568,-0.13070873727784302,0.0518573446773691,0.013707262516245428,-0.034259001123384134,0.0455050689523698,-0.4173543178187679,-0.0035724600530796916,-0.3430010998177148,-0.05517925236310123,-0.14217046896558866,-0.06764075049812576,-0.02006903275995435,-0.016697739997586714,1.781273045016022,-0.9689020145881022
99,2.6666666666666665,Exhale,1,-0.449248398236819,0.04505507418111367,0.11692660785625208,-0.12310897149211912,0.04285913902630557,0.011585285230746846,-0.022628655632692188,0.06396196836599237,-0.5345507903348499,-0.01168590191315324,-0.40794791351926474,-0.04616550762834587,-0.21846838662191428,-0.07651529839518438,-0.10967175564138884,0.002837981122748149,-0.755102186686336,1.023760545479423
100,3.0,Exhale,1,-0.4807053921750496,0.05445410663516812,0.09012136611721594,-0.11204226512674327,0.030674510220403357,0.008709116423195344,-0.0034808575615361123,0.07458630991770197,-0.6366753778853063,-0.032472322240967064,-0.4701558480801995,-0.032375069410301396,-0.29249594327182626,-0.08650615293953651,-0.1988615837386592,0.02018763620657994,-2.63704334164108,2.4458931286112313
101,3.3333333333333335,Exhale,1,-0.49971073683854045,0.0630265493368676,0.06625452666106986,-0.09893312482182301,0.016055166686049983,0.005549335588820184,0.018347043768558172,0.07496033353266016,-0.7232303162592332,-0.058503415438593595,-0.5253362815823425,-0.01609122031530031,-0.3609000115628184,-0.09778795839454342,-0.28204011326818823,0.03337498577931173,-3.4355386237356993,2.940231691802459
102,3.6666666666666665,Exhale,1,-0.5043741263783695,0.07039058692870274,0.04777106961408313,-0.08568043521776753,0.00031675595417388015,0.0025968999944293103,0.03554961482064586,0.06707656319666987,-0.7951274355846559,-0.08059904510492512,-0.5698522790137835,-0.0007320170772343559,-0.4193603229770293,-0.1116274353842705,-0.35408724373199174,0.04040321174154765,-3.2216980280035448,2.51314398439105
103,4.0,Exhale,1,-0.49494985853740825,0.07645479721787107,0.03625080641198397,-0.07429184716445762,-0.014951832281938,0.0002533738456471406,0.04132617009708887,0.05611148218223331,-0.851272369266231,-0.09447019222994303,-0.6007607848853367,0.01036827776014345,-0.46425164696311977,-0.12872069070771172,-0.41063052666130456,0.039983783882918955,-2.4952813398252562,1.529408491677289
104,4.333333333333333,Exhale,1,-0.47377569016106263,0.08147294236567769,0.031773749038396325,-0.06636299250377699,-0.02828882521708075,-0.001233912074795135,0.033752107011386465,0.045740195384669585,-0.8870415723536097,-0.10399528913059768,-0.6156571291853483,0.015235916902189839,-0.4943452620233052,-0.14764516434672972,-0.44855193895953516,0.03229720849528937,-1.8811554284362437,0.5080295971782448
105,4.666666666666667,Exhale,1,-0.44475949093013517,0.08601308812151581,0.03262770197463163,-0.06262505215204729,-0.0387293012319388,-0.0018243650872512734,0.01678905834891797,0.03573285723490797,-0.8964385473755132,-0.11806443242027238,-0.6132105603268139,0.014079277226293454,-0.5111001131552448,-0.1652000623959802,-0.46679164030592724,0.019272617654436136,-1.7872743570365919,-0.1399825598539511
106,5.0,Exhale,1,-0.41258752877197963,0.09086128268042067,0.0355002593970328,-0.06272759574186065,-0.04604195645334345,-0.0017264929012788196,-0.0034365623346472645,0.024507000988788063,-0.8761516516989966,-0.1437774054533668,-0.594226142966009,0.009300518498729204,-0.5173860074233099,-0.17832578725923026,-0.4670428400232303,0.004212204893123514,-2.2434692327405665,-0.255708639638437
107,5.333333333333333,Exhale,1,-0.3818413936607961,0.09688278212269112,0.03617481740669797,-0.0653116700698032,-0.050721077687379844,-0.0013933408531954434,-0.022932279188365004,0.012231690704667422,-0.8283230124478588,-0.1811686770871903,-0.5620163212735121,0.004573807282717114,-0.5156494313201614,-0.18597169090839397,-0.4537550840020797,-0.009105702497073887,-2.9849646600563178,0.09119870991309828
108,5.666666666666667,Exhale,1,-0.3562721952766786,0.10485867875322659,0.030502401266660335,-0.06833224255158124,-0.05375345912217512,-0.0014099798693064072,-0.04097293901754496,0.0005032299632286472,-0.760226567021033,-0.22272715648499436,-0.5215654578944168,0.003329170705330165,-0.5069802165297742,-0.18940759037063912,-0.4332981332939931,-0.01748706724518468,-3.658421593671851,0.7061124031667804
109,6.0,Exhale,1,-0.3383129096660013,0.11530762218866132,0.015480861609476248,-0.06953962797135305,-0.05625521965391886,-0.0022809963208610677,-0.058811964158658706,-0.009555997728368184,-0.6814578177816345,-0.257481094555555,-0.4781772678494984,0.007434711500734522,-0.4915913794396661,-0.19070179107424165,-0.41247779361630477,-0.019231942174026042,-3.9862031363304222,1.3495990016207042
110,6.333333333333333,Exhale,1,-0.3288541497034229,0.12831201035795167,-0.009861555555410382,-0.066996233354943,-0.0590834842502137,-0.004240183054487405,-0.07805706289064808,-0.017830489648683476,-0.6009373076225895,-0.2768035646950555,-0.4364912825428887,0.01682340807263048,-0.4697242729067285,-0.19089888015405998,-0.3967621616132844,-0.014600123749900292,-3.8359688818886952,1.7957388185949352
111,6.666666666666667,Exhale,1,-0.3273197332201311,0.14339603325209066,-0.04410319725550907,-0.059502162490760534,-0.06253786543703317,-0.007196203822062564,-0.09916884555242446,-0.02481115894999352,-0.5251952597953058,-0.2786029812842735,-0.399798827735886,0.029928474746411464,-0.4417993178029652,-0.1896056653134148,-0.3885276145223285,-0.00562094145067667,-3.236555710837901,1.9174197849505326
112,7.0,Exhale,1,-0.3320516473850445,0.15952494231511802,-0.08370628206115463,-0.046861253744660616,-0.06622163546943936,-0.010801825351329957,-0.1205534211983273,-0.031287141949233925,-0.4577789421346745,-0.26762757827123734,-0.3692893040961683,0.04412858314690388,-0.40804737055663665,-0.1858111224911553,-0.386007591194505,0.004779471838473342,-2.361843389556349,1.749592918659932
113,7.333333333333333,Exhale,1,-0.3410628543378698,0.17526982585432477,-0.1239670235078627,-0.029943208174177283,-0.06910013263961357,-0.014559067592453465,-0.1393456489943564,-0.03748230219411543,-0.3996041732159656,-0.25181655652868756,-0.343859056284396,0.05609129488340265,-0.3683964239445552,-0.1788577233912973,-0.3839919101782299,0.01405557817005882,-1.4620029513874482,1.4367389706854654
114,7.666666666666667,Exhale,1,-0.35290718265459,0.1891039860644413,-0.1602396518939801,-0.01048925972485261,-0.0697485505906127,-0.01791048752518975,-0.15334317641608652,-0.04199916538590335,-0.350096981630013,-0.23744536332187344,-0.32111986534733594,0.06258856135415616,-0.3224746492247179,-0.16908494715828948,-0.37614556786078585,0.020938922710002333,-0.754389846241691,1.1060644327959488
115,8.0,Exhale,1,-0.3671181895573933,0.19974423003319222,-0.18884787017563934,0.009308318625010453,-0.06673976467301491,-0.020330027047472075,-0.1620049218667375,-0.042608794304260025,-0.3085404613258289,-0.22654636920319843,-0.2989466799712804,0.06163100411922996,-0.26970438125817137,-0.15789713373577202,-0.357447062989245,0.02533602837030522,-0.33782572722393023,0.8040337765145167
116,8.333333333333334,Exhale,1,-0.3840203243688711,0.20645315940412742,-0.20759507599656185,0.027300681326375528,-0.05913719130067273,-0.021421792706955916,-0.16601728965717816,-0.03862613423399969,-0.2750130496466711,-0.2176823373072468,-0.2765053968397656,0.05306387784382961,-0.20983920548619825,-0.1473030464449073,-0.3254617767976885,0.027586184927740655,-0.16721189840148093,0.5224661784360989
117,8.666666666666666,Exhale,1,-0.4041473993683778,0.20922698659018543,-0.2159841664922256,0.04178020623504594,-0.046965454071966464,-0.020998091582986763,-0.1671155365486344,-0.03154719980143763,-0.2503532329888948,-0.20849280993782743,-0.2544782009002079,0.03834917981012666,-0.1435418659506347,-0.1394226755378971,-0.28019229649611976,0.02789352165946267,-0.08193083523684995,0.22477629921884446
118,9.0,Exhale,1,-0.4276249745817181,0.20880574775522423,-0.21512451287842446,0.05169979128636412,-0.03138646385398529,-0.019128388987482738,-0.16846875581587617,-0.02300038689489793,-0.2354698009955173,-0.19752423937897265,-0.2347527820942588,0.019930694995543785,-0.07266870166355653,-0.13591437792610528,-0.2231890408101058,0.026278048774290984,0.1128528703316885,-0.1593126214956812
119,9.333333333333334,Exhale,1,-0.4538632083551147,0.20648703381471875,-0.2073557322080672,0.056731894721661416,-0.014422120310544573,-0.01617339895192777,-0.17357884662793335,-0.013568693403116802,-0.23124376414043382,-0.1838118897273367,-0.2197917661711547,0.0005495960286209168,-0.0006985909631554933,-0.13692135504465772,-0.15704851419249666,0.022741851023813174,0.5303590312171694,-0.7101626320071522
120,9.666666666666666,Exhale,1,-0.481749823192247,0.20379114237842458,-0.19574405177907078,0.057227371393360246,0.0015992991670594737,-0.012771461402364003,-0.18359948973074486,-0.004424558059798369,-0.23885040776632202,-0.16540662616974333,-0.2119375126076589,-0.017211498310517475,0.06664249520039245,-0.14004833913406253,-0.08598210438824139,0.017212524150327115,1.1107966078048002,-1.4271361189586453
121,10.0,Exhale,1,-0.5102709548846907,0.20208761498616065,-0.18367625962476042,0.05412928760179289,0.014555890300497908,-0.009713898678880539,-0.19628030063904145,0.0015048332302813805,-0.2587558143467803,-0.13977610952912964,-0.21303241169323514,-0.031074880374446043,0.12142551108634393,-0.14066346227426182,-0.01694044717351118,0.009312975094729817,1.6134201791308944,-2.1377920793661858
122,10.333333333333334,Exhale,1,-0.5392271613827615,0.20232328342487868,-0.17464815178554377,0.04887623949461201,0.022898145529270886,-0.007716719247812368,-0.2081652167111254,0.001538299133029459,-0.2885581880115852,-0.10657776856739534,-0.22440767267248826,-0.039328229577856616,0.15519049296029952,-0.1342188364971909,0.04025997961935234,-0.0015847007778838054,1.7197338785439802,-2.531219589703108
123,10.666666666666666,Exhale,1,-0.5695494794891433,0.20495216559759455,-0.17203894976143927,0.04328289087765557,0.025951435499320503,-0.007196673476306664,-0.21750104124025366,-0.004162150406709377,-0.32238597003004854,-0.06978435455649831,-0.2468648046895161,-0.04153322148400441,0.16207431148031198,-0.11942993313046062,0.07491897615079432,-0.01586856315438056,1.2033518178878277,-2.3306806003448854
124,11.0,Exhale,1,-0.6028765016152369,0.2100453006512406,-0.17858715579147594,0.03933573613578254,0.0241154253213806,-0.0081572491232695,-0.22498628868302856,-0.01275356251987916,-0.35296048252633355,-0.0368757087302587,-0.2803174457793873,-0.03922664221428671,0.1416016129444678,-0.09972771070169226,0.07883296153714785,-0.033200132623756734,0.0521160782101389,-1.4666679808090086
125,11.333333333333334,Exhale,1,-0.6404975002038066,0.21744215057607316,-0.19558536556729947,0.038864208619076766,0.01875371535815995,-0.010209669232717287,-0.23271682168437635,-0.020846105015967467,-0.3742330248537113,-0.016018037150256133,-0.32307101432410223,-0.03593371372450604,0.09911036310655408,-0.08147038010441861,0.04918024418097521,-0.052536612214235535,-1.5205782090132594,-0.1245805418097695
126,11.666666666666666,Exhale,1,-0.6821341994837183,0.22681603378777568,-0.222156418962301,0.04313564310021596,0.011734368600993595,-0.01272110949442549,-0.2430336197576226,-0.026222277535767922,-0.38268153191356225,-0.013123723994728024,-0.3711223260404417,-0.03628178538698542,0.04356244532749714,-0.07024663655865389,-0.010362362838199518,-0.07264661230220981,-3.134516771781039,1.3247983861671986
127,12.0,Exhale,1,-0.7251939678282939,0.23764772002925272,-0.2551386822319881,0.052492504024127896,0.004893665459410996,-0.015042957226964887,-0.2575074591899333,-0.028763081928811166,-0.3775235898921526,-0.02994799809371921,-0.41837846413890883,-0.04420294064844665,-0.015617206071650841,-0.06815712275691604,-0.09041677533757302,-0.09254623895686488,-4.32989636182442,2.4388680586289997
128,12.333333333333334,Exhale,1,-0.7649708741952422,0.24919043659940215,-0.2898143104340974,0.06616622150445946,-0.00029863376506719723,-0.01667740797675532,-0.2759222575794783,-0.030568521663977926,-0.3605073346077186,-0.06379037210103636,-0.4582681129379784,-0.06065952306553889,-0.07074153937652722,-0.07379070577080235,-0.17820646448445854,-0.11139287628000938,-4.692305679683564,2.8316486423687017
129,12.666666666666666,Exhale,1,-0.7956785740012249,0.2604995920948267,-0.32094047440539253,0.08236695050101554,-0.0028217925399837787,-0.0172883888848345,-0.2963176102694659,-0.034236673889558124,-0.3351831483998928,-0.10835996058794484,-0.48561313734902284,-0.08250195661306933,-0.11627770723202184,-0.0842700468073729,-0.26053394656193,-0.1282495958103145,-4.014781457749434,2.3244977596810856
130,13.0,Exhale,1,-0.8118818601321067,0.270566511922615,-0.34355188217266547,0.09866474909813729,-0.0021087623474213293,-0.0166749738489235,-0.31660978027389075,-0.040246480800034325,-0.306125513508284,-0.15473546552518566,-0.49749679815764936,-0.10384782484607297,-0.1484273452665228,-0.09744130117310733,-0.3266414666524816,-0.14234719506201132,-2.429355540827748,1.065241464149277
131,13.333333333333334,Exhale,1,-0.810029241880281,0.2785586197687729,-0.35379210142233775,0.11256111276641607,0.001794456096034143,-0.014856380910434038,-0.33621897545948937,-0.04680302199664909,-0.27883805488432417,-0.19279235966575753,-0.49349299166008725,-0.11913679919894447,-0.16549711303881132,-0.11269537449779055,-0.37055776076938174,-0.15349944248781988,-0.40106486348864184,-0.4959668408055278
132,13.666666666666666,Exhale,1,-0.7894915436362672,0.2840754617484154,-0.349784706335572,0.12204003277212719,0.00803908596584303,-0.012174905173750817,-0.35617723824706915,-0.05250079549565157,-0.25909359501031665,-0.21482101555928101,-0.4757844865333921,-0.12573088512171174,-0.16898168083500065,-0.13021904130478995,-0.3921628741938588,-0.16200469918883598,1.4530074746421757,-1.7979500844983762
133,14.0,Exhale,1,-0.7524717795353405,0.28726882190908176,-0.3320442109110386,0.12590737202431201,0.015141212418832055,-0.00921711401050645,-0.378504741912997,-0.057611392160199545,-0.2505404587149024,-0.22047888799214727,-0.44886538182221347,-0.12458756545791563,-0.16394575450623886,-0.14951743690617061,-0.3962932338118901,-0.16811538794278227,2.631704034316325,-2.413719139964083
134,14.333333333333334,Exhale,1,-0.703047897785085,0.28875999427651095,-0.30338017021803826,0.12391181317586886,0.021496450268911733,-0.006569028430615457,-0.4059995228444504,-0.06208596596210573,-0.25286322228483166,-0.21829895832158663,-0.4187362017641037,-0.11875573024301243,-0.1580260474484173,-0.1684484126426055,-0.39042342079086556,-0.17161640522842342,2.9592470648505906,-2.2161336654616117
135,14.666666666666666,Exhale,1,-0.6460121294076768,0.28942322957686706,-0.2683862845637582,0.11674746691056985,0.02585630962703075,-0.004605523750772429,-0.44132485762268564,-0.06421977678256127,-0.2629583139346412,-0.2208586638995212,-0.39170712001292063,-0.1108757487531804,-0.15913092588936384,-0.1837827802308242,-0.382004811927494,-0.17191887343195322,2.6251206309453785,-1.398605436155883
136,15.0,Exhale,1,-0.5858878853326807,0.29014890639506036,-0.23252458258547193,0.1059467463829438,0.02752059891746429,-0.0034477453692759053,-0.48442118500752,-0.06299024039250521,-0.27781251353220526,-0.23706525583398683,-0.372943910790341,-0.10158428659326607,-0.17259087876439935,-0.1930515462712569,-0.37649557416970664,-0.16849789627541137,2.0278098792553365,-0.3550617208626333
137,15.333333333333334,Exhale,1,-0.52640980274481,0.29165438739516225,-0.20111081746691187,0.09360728517922243,0.026250920747954473,-0.0030595635965408653,-0.5306847959335994,-0.06062428401338972,-0.2963012882428146,-0.2671412655774083,-0.3651473650935533,-0.08967945748038303,-0.19925566920539695,-0.19605806833234996,-0.37682822312772113,-0.16110078134634392,1.5067492417219266,0.5201518091238557
138,15.666666666666666,Exhale,1,-0.4705398841473275,0.29435843995656413,-0.1784580796994275,0.0819801466138484,0.022065872984349793,-0.0033571332852621884,-0.5727436098863845,-0.06118486938151992,-0.3189682843856815,-0.3025048894943475,-0.3676958794189947,-0.07341097389245174,-0.2354180797210398,-0.19481821273619102,-0.3840330417021908,-0.14960408211831788,1.1441948229573389,1.0158925456578272
139,16.0,Exhale,1,-0.42079982439987734,0.2983236297824756,-0.16731640406115306,0.07304559062924662,0.015103810545497027,-0.004244596395380395,-0.6043934466451591,-0.06707294365207278,-0.34681877769080655,-0.3295241860379448,-0.3766545294157862,-0.05187919794054231,-0.2742843877840742,-0.19233703538650965,-0.3981127780964953,-0.13386641376921607,0.7946213156021398,1.1711509589303188
140,16.333333333333332,Exhale,1,-0.3795362337921071,0.30327248292994957,-0.16864315336202304,0.06819322546854961,0.005632278748891988,-0.005608200268025283,-0.6231298910361325,-0.07779794853314931,-0.3802577894390761,-0.335156369417277,-0.3859952971323904,-0.025858441723353873,-0.3082616825948395,-0.1913299655091751,-0.41846291588224144,-0.11388557997740713,0.3072274008015374,1.1762245246812075
141,16.666666666666668,Exhale,1,-0.348699797955187,0.3086724469077073,-0.18152759193830226,0.06803510696510169,-0.005852210855467873,-0.007332200237714575,-0.6305067798189338,-0.09116011249021726,-0.4182603869110904,-0.3121565115783542,-0.3896591803747136,0.0023686706556736107,-0.3314505456267656,-0.19326486875236976,-0.4436344144224771,-0.09031645267493338,-0.27779232087821465,1.177637277980305
142,17.0,Exhale,1,-0.32912865061440794,0.31387957801932864,-0.20327823478419255,0.07234725940671909,-0.01856731224778414,-0.009323929367481438,-0.6315825954697506,-0.10438432212718808,-0.4578322092255549,-0.2615944813568756,-0.3835555225533657,0.029998589779777627,-0.3416858354825748,-0.19757036257482496,-0.47087213105205206,-0.06497152811698982,-0.7291678494963445,1.1443963762041354
143,17.333333333333332,Exhale,1,-0.3197645287815707,0.318332307831999,-0.2297772789406621,0.08015781294940304,-0.03146160978065257,-0.01149645826484727,-0.6331389122973431,-0.11498691624361465,-0.4940818250169052,-0.1919885659760804,-0.36647567435676326,0.05453599764572162,-0.34085435010739107,-0.20145601509992503,-0.49590949839470544,-0.040791573406122036,-0.7767185068627445,0.9019872437772206
144,17.666666666666668,Exhale,1,-0.31729751741391177,0.321761580028295,-0.256078946548652,0.08996710356969059,-0.04324006417798457,-0.013707991946303408,-0.6400113868616796,-0.12220858343142102,-0.5204717742709232,-0.11662812887688229,-0.33936041129643996,0.07377768291167545,-0.33279437291256275,-0.20097917312928784,-0.5132421197088798,-0.021136172980653067,-0.2791440455488786,0.3013993426993562
145,18.0,Exhale,1,-0.3166060929960899,0.32432362732038067,-0.27725963228817996,0.10004571491054334,-0.0524357189737105,-0.015709649330670032,-0.6520101303689411,-0.1275450299529464,-0.5287292254157574,-0.050847747311529974,-0.3035617524323964,0.08547302613934048,-0.32012805145755424,-0.19296314829790312,-0.5170305336462749,-0.008705922794519604,0.6687468113439449,-0.6194303455845842
146,18.333333333333332,Exhale,1,-0.31196279485033246,0.32654513794072276,-0.2893895845761395,0.10877890202111193,-0.05759290484548682,-0.017147222522432757,-0.6647554321053164,-0.13289936883766948,-0.5092783603125827,-0.009146986769187255,-0.25968177354547767,0.08756331966783416,-0.3022350024583763,-0.1766515449388739,-0.5023810845511356,-0.0047147275038740945,1.7401065558567523,-1.6195792142889873
147,18.666666666666668,Exhale,1,-0.29855147874283194,0.32906506797927426,-0.29034068240716526,0.11501295851371107,-0.05751325746686495,-0.01763849066021775,-0.673533484114628,-0.13840729362280904,-0.4536057601702436,-0.001552101539024142,-0.2081146003705786,0.07910613977345018,-0.27563906746042777,-0.15418962278132256,-0.4664533559430565,-0.008732785594720266,2.5323820371148633,-2.3891138795751745
148,19.0,Exhale,1,-0.27370864624249275,0.33227981485697633,-0.2801502717064724,0.11828145677401572,-0.05148024514181277,-0.016912257153205587,-0.6763187951118232,-0.1425721366815444,-0.3583950576421849,-0.030038307649374974,-0.15053032135721572,0.06103744252819344,-0.23638776077141901,-0.1296853649261052,-0.4090858136883583,-0.01909638224098273,2.7961783866943914,-2.713225938921866
149,19.333333333333332,Exhale,1,-0.23743869533618897,0.33604535573787586,-0.2607448193087389,0.11878680989616056,-0.03943019629782679,-0.01491940358789149,-0.674092763185023,-0.14380837313120018,-0.2293845562347563,-0.0865184886239839,-0.090461972325177,0.035971672876690834,-0.1825778518540349,-0.10750815001464731,-0.3329165797490064,-0.03353148248205747,2.540837644966058,-2.55171223944306
150,19.666666666666668,Exhale,1,-0.19214677455320153,0.33956911384839444,-0.23517451698912387,0.11715166306362315,-0.022066191368812795,-0.011819246702900896,-0.6692292294050612,-0.14119662626218582,-0.08215563567557657,-0.15396150834748623,-0.032483884209931466,0.007297492080049177,-0.11549686445149272,-0.0908434477675868,-0.24308164943235752,-0.04969382532910845,1.9279899330233694,-2.002193630646515
151,20.0,Exhale,1,-0.1418974223022229,0.3415544886317938,-0.2067915659401488,0.11409819047064172,-0.0008679761697516202,-0.007879181944180899,-0.6632625149788,-0.13459427082641054,0.06182566292504357,-0.21159847527095724,0.019042306582480434,-0.021608234764253144,-0.03941738320612335,-0.08098394246020522,-0.1466030744764171,-0.0654719610683282,1.1041213547998465,-1.2026076845618328
152,-5.0,Inhale,2,0.22448734266996057,-0.04889740928394897,0.07515066262946901,0.015588376177839923,0.03019322859592543,0.005334445011027591,0.0663859317976476,-0.045416356931824796,0.668350257161515,0.024549399155954735,0.2835925567054827,-0.010966022746910688,0.4111199045753628,0.049453869185727396,0.35122852086957795,-0.06131114453584084,-0.15284402883027132,-0.351096230400714
153,-4.666666666666667,Inhale,2,0.18513069106014413,-0.04694220438330136,0.08978778387994531,-0.0020485139759715064,0.034398052450319606,0.005865702410173202,0.03243220081669495,-0.044583405453031556,0.6266765094128991,0.010733167213298584,0.27806048715720405,-0.015884051599113123,0.38814567743984446,0.04594560467885642,0.3673207733825355,-0.06502726305505084,2.3029095796039565,-2.117956821695286
154,-4.333333333333333,Inhale,2,0.1457274698829824,-0.0430308907337148,0.09493730012112798,-0.016950817020235223,0.03823598107530185,0.006367114104316438,0.0036741052066202877,-0.044142138469814844,0.5456131059808209,0.011593176415794399,0.25723440685206933,-0.02254141868224541,0.3457994543255514,0.04459093225665357,0.3583363107183861,-0.06292142359293516,4.494464795870118,-3.554657732819247
155,-4.0,Inhale,2,0.10518702552099624,-0.03725127667152024,0.0904507520909882,-0.027888463249565634,0.040808344470079895,0.006950247809169061,-0.018900167023283943,-0.038860051503426744,0.43636050758718076,0.02368109822227399,0.22198782151831092,-0.028945388012365705,0.28854239615260346,0.043755364480411806,0.32511687755049273,-0.054578228636135186,5.720075090444231,-4.1751385650445645
156,-3.6666666666666665,Inhale,2,0.062193821095040666,-0.029883660379892624,0.07718440292188161,-0.0342041166105368,0.041216498716863316,0.00739430480543837,-0.034877009538597604,-0.025554452795065612,0.3105506362417832,0.04112649292405194,0.17436113251118013,-0.03341113822050952,0.22102232331451407,0.04179679815857818,0.27027784991080084,-0.04056495592486061,5.545414189992003,-3.731504254555862
157,-3.3333333333333335,Inhale,2,0.017023657489872196,-0.0212887316923015,0.056879350684615346,-0.03568027286918219,0.03880884886059913,0.007260254565429656,-0.04268749805093129,-0.0057773189532684035,0.17881756191171708,0.05652859200390844,0.11716299443845195,-0.0344796546039424,0.14744443477914737,0.03753709236307606,0.19805514284213652,-0.022525991563486416,3.9921912840476574,-2.3102260125624765
158,-3.0,Inhale,2,-0.02779373132327647,-0.011895294459377965,0.031888915952139,-0.032411087366253664,0.03318825689119807,0.006167739377433638,-0.04076442126479637,0.01589709431694694,0.05062536345414274,0.06243726146060099,0.05397539632904775,-0.03085795806417153,0.07123487140414078,0.030645382512514533,0.11404759562187863,-0.0026814579948852904,1.557077369217814,-0.3135513463775178
159,-2.6666666666666665,Inhale,2,-0.06813769387077001,-0.0022140082617720103,0.004739933105415391,-0.024811321580529774,0.02419005124013455,0.0040457620919350555,-0.029134075774104425,0.03435399373056951,-0.06657110906193917,0.05432381960052744,-0.010971417372502224,-0.021844213329416173,-0.005063046252184848,0.02177083461545592,0.02444487274044415,0.016854263125449576,-0.9792978624845441,1.679111213690007
160,-2.3333333333333335,Inhale,2,-0.0995946878090006,0.007185024192282437,-0.02206530863362076,-0.01374461521515394,0.01200542243423233,0.0011695932843835556,-0.009986277702948349,0.04497833528227912,-0.16869569661239564,0.033537399272713625,-0.07317935193343693,-0.008053775111371703,-0.07909060290209682,0.0117799800711038,-0.06474495535682621,0.03420391820928137,-2.8612390174392885,3.101243796821816
161,-2.0,Inhale,2,-0.11860003247249147,0.015757466893981914,-0.04593214808976683,-0.0006354749102336796,-0.0026139211001210455,-0.0019901875499916052,0.011841623627145937,0.0453523588972373,-0.2552506349863225,0.007506306075087088,-0.1283597854355799,0.008230073983629385,-0.147494671193089,0.0004981746160968834,-0.14792348488635526,0.047391267782013156,-3.6597342995339077,3.5955823600130437
162,-1.6666666666666667,Inhale,2,-0.1232634220123206,0.023121504485817058,-0.06441560513675355,0.012617214693821809,-0.018352331831997148,-0.004942623144382479,0.029044194679233623,0.03746858856124701,-0.3271477543117453,-0.014589323591244435,-0.17287578286702096,0.02358927722169534,-0.20595498260729983,-0.0133413023736302,-0.21997061535015877,0.05441949374424908,-3.445893703801753,3.1684946526016344
163,-1.3333333333333333,Inhale,2,-0.11383915417135923,0.029185714774985386,-0.07593586833885273,0.024005802747131717,-0.033620920068109024,-0.007286149293164648,0.03482074995567663,0.026503507546810454,-0.3832926879933202,-0.028460470716262353,-0.20378428873857413,0.034689572059073144,-0.2508463065933903,-0.03043455769707143,-0.2765138982794716,0.05400006588562038,-2.7194770156234647,2.1847591598878733
164,-1.0,Inhale,2,-0.09266498579501366,0.034203859922792006,-0.08041292571244037,0.03193465740781235,-0.04695791300325178,-0.008773435213606923,0.02724668686997423,0.01613222074924673,-0.41906189108069913,-0.037985567616916995,-0.2186806330385857,0.03955721120111953,-0.28093992165357584,-0.04935903133608942,-0.3144353105777022,0.0463134904979908,-2.105351104234452,1.1633802653888292
165,-0.6666666666666666,Inhale,2,-0.06364878656408615,0.03874400567863013,-0.07955897277620506,0.03567259775954204,-0.057398389018109834,-0.009363888226063063,0.010283638207505733,0.0061248825994851125,-0.4284588661026025,-0.052054710906591695,-0.2162340641800513,0.03840057152522315,-0.29769477278551526,-0.06691392938533991,-0.3326750119240942,0.03328889965713756,-2.0114700328348,0.5153681083566332
166,-0.3333333333333333,Inhale,2,-0.03147682440593065,0.04359220023753498,-0.07668641535380388,0.03557005416972868,-0.06471104423951447,-0.009266016040090608,-0.009941982476059501,-0.005100973646634794,-0.408171970426086,-0.07776768393968612,-0.19724964681924634,0.0336218127976589,-0.30398066705358046,-0.08003965424858994,-0.3329262116413973,0.01822848689582494,-2.467664908538774,0.39964202857214737
167,0.0,Inhale,2,-0.0007306892947471023,0.04961369967980543,-0.07601185734413872,0.03298597984178614,-0.06939016547355087,-0.008932863992007233,-0.029437699329777238,-0.017376283930755434,-0.360343331174948,-0.11515895557350962,-0.16503982512674953,0.028895101581646813,-0.30224409095043187,-0.08768555789775367,-0.3196384556202467,0.004910579505627538,-3.209160335854526,0.7465493781236826
168,0.3333333333333333,Inhale,2,0.024838509089370468,0.0575895963103409,-0.08168427348417635,0.0299654073600081,-0.07242254690834615,-0.008949503008118196,-0.0474783591589572,-0.02910474467219421,-0.29224688574812235,-0.15671743497131366,-0.12458896174765424,0.027650465004259862,-0.2935748761600448,-0.09112145735999883,-0.2991815049121601,-0.0034707852424832545,-3.882617269470059,1.3614630713773646
169,0.6666666666666666,Inhale,2,0.04279779470004775,0.06803853974577563,-0.09670581314136044,0.028758021940236293,-0.07492430744008988,-0.009820519459672857,-0.06531738430007095,-0.03916397236379104,-0.2134781365087239,-0.1914713730418743,-0.0812007717027358,0.03175600579966422,-0.27818603906993666,-0.09241565806360136,-0.27836116523447174,-0.0052156601713246155,-4.210398812128631,2.0049496698312885
170,1.0,Inhale,2,0.052256554662626103,0.081042927915066,-0.12204823030624709,0.03130141655664633,-0.07775257203638473,-0.011779706193299195,-0.08456248303206032,-0.04743846428410633,-0.13295762634967884,-0.2107938431813748,-0.03951478639612619,0.041144702371560184,-0.2563189325369991,-0.09261274714341967,-0.26264553323145146,-0.0005838417471988674,-4.060164557686904,2.45108948680552
171,1.3333333333333333,Inhale,2,0.05379097114591795,0.09612695080920498,-0.15628987200634575,0.0387954874208288,-0.0812069532232042,-0.014735726960874353,-0.1056742656938367,-0.05441913358541638,-0.05721557852239516,-0.21259325977059282,-0.002822331589123386,0.05424976904534116,-0.22839397743323578,-0.0913195323027745,-0.25441098614049557,0.008395340552024755,-3.4607513866361095,2.5727704531611173
172,1.6666666666666667,Inhale,2,0.049059056981004504,0.11225585987223234,-0.19589295681199131,0.051436396166928716,-0.0848907232556104,-0.018341348490141747,-0.12705884133973955,-0.060895116584656774,0.010200739138236154,-0.20161785675755667,0.02768719205059432,0.06844987744583358,-0.1946420301869072,-0.087524989480515,-0.251890962812672,0.018795753841174767,-2.586039065354557,2.4049435868705165
173,2.0,Inhale,2,0.04004785002817914,0.12800074341143908,-0.2361536982586994,0.06835444173741205,-0.0877692204257846,-0.022098590731265254,-0.14585106913576862,-0.06709027682953829,0.06837550805694506,-0.1858068350150069,0.05311743986236659,0.08041258918233235,-0.15499108357482572,-0.08057159038065699,-0.24987528179639695,0.028071860172760244,-1.6861986271856564,2.09208963889605
174,2.3333333333333335,Inhale,2,0.028203521711459012,0.1418349036215556,-0.27242632664481675,0.08780839018673672,-0.08841763837678374,-0.025450010664001536,-0.15984859655749875,-0.0716071400213262,0.11788269964289769,-0.17143564180819276,0.07585663079942662,0.08690985565308586,-0.10906930885498849,-0.07079881414764916,-0.2420289394789529,0.03495520471270376,-0.9785855220398991,1.7614151010065333
175,2.6666666666666665,Inhale,2,0.01399251480865576,0.15247514759030656,-0.301034544926476,0.10760596853659979,-0.08540885245918595,-0.027869550186283867,-0.16851034200814974,-0.07221676893968289,0.1594392199470818,-0.16053664768951775,0.09802981617548218,0.08595229841815967,-0.056299040888441905,-0.059611000725131716,-0.22333043460741203,0.03935231037300665,-0.5620214030221383,1.4593844447251012
176,3.0,Inhale,2,-0.0029096200028221175,0.15918407696124176,-0.31978175074739856,0.12559833123796485,-0.07780627908684376,-0.028961315845767707,-0.17252270979859038,-0.06823410886942254,0.19296663162623956,-0.1516726157935661,0.12047109930699697,0.07738517214275932,0.0035661348835312034,-0.04901691343426699,-0.1913451484158555,0.04160246693044208,-0.39140757419968897,1.1778168466466832
177,3.3333333333333335,Inhale,2,-0.023036695002328786,0.16195790414729974,-0.3281708412430623,0.14007785614663526,-0.0656345418581375,-0.028537614721798554,-0.17362095669004662,-0.061155174436860485,0.21762644828401587,-0.14248308842414675,0.14249829524655466,0.06267047410905635,0.06986347441909474,-0.041136542527256806,-0.14607566811428677,0.0419098036621641,-0.306126511035058,0.8801269674294288
178,3.6666666666666665,Inhale,2,-0.04651427021566911,0.16153666531233854,-0.32731118762926115,0.14999744119795344,-0.050055551640156314,-0.02666791212629453,-0.1749741759572884,-0.05260836153032079,0.2325098802773934,-0.13151451786529197,0.16222371405250377,0.044251989294473486,0.14073663870617292,-0.03762824491546496,-0.0890724124282728,0.04029433077699241,-0.11134280546651955,0.49603804671490315
179,4.0,Inhale,2,-0.0727525039890657,0.15921795137183306,-0.3195424069589039,0.15502954463325075,-0.0330912080967156,-0.02371292209073956,-0.1800842667693456,-0.04317666803853966,0.23673591713247685,-0.11780216821365602,0.17718472997560783,0.024870890327550615,0.21270674940657394,-0.03863522203401743,-0.022931885810663664,0.0367581330265146,0.30616335541896145,-0.05481196379656786
180,4.333333333333333,Inhale,2,-0.10063911882619807,0.1565220599355389,-0.3079307265299075,0.15552502130494958,-0.017069788619111553,-0.020310984541175792,-0.19010490987215709,-0.034032532695221225,0.22912927350658865,-0.09939690465606264,0.18503898353910364,0.007109795988412222,0.2800478355701219,-0.04176220612342222,0.048134523993591596,0.03122880615302854,0.8866009320065922,-0.7717854507480612
181,4.666666666666667,Inhale,2,-0.12916025051864158,0.15481853254327496,-0.2958629343755971,0.15242693751338224,-0.00411319748567312,-0.01725342181769233,-0.20278572078045368,-0.028103141405141474,0.20922386692613038,-0.07376638801544898,0.18394408445352742,-0.006753586075516345,0.3348308514560734,-0.04237732926362153,0.11717618120832181,0.023329257097431243,1.3892245033326864,-1.4824414111556017
182,5.0,Inhale,2,-0.15811645701671243,0.15505420098199296,-0.2868348265363805,0.14717388940620135,0.00422905774309986,-0.015256242386624158,-0.21467063685253765,-0.028069675502393397,0.17942149326132542,-0.040568047053714654,0.17256882347427432,-0.015006935278926917,0.368595833330029,-0.0359327034865506,0.17437660800118532,0.01243158122481762,1.495538202745772,-1.8758689214925233
183,5.333333333333333,Inhale,2,-0.18843877512309423,0.15768308315470886,-0.28422562451227595,0.1415805407892449,0.007282347713149477,-0.014736196615118453,-0.2240064613816659,-0.03377012504213223,0.1455937112428621,-0.0037746330428176326,0.15011169145724648,-0.01721192718507471,0.37547965185004145,-0.021143800119820325,0.2090356045326273,-0.0018522811516791353,0.9791561420896198,-1.675329932134301
184,5.666666666666667,Inhale,2,-0.22176579724918782,0.16277621820835492,-0.2907738305423126,0.13763338604737188,0.005446337535209573,-0.01569677226208129,-0.23149170882444078,-0.04236153715530202,0.1150191987465771,0.02913401278342198,0.1166590503673753,-0.014905347915357015,0.35500695331419724,-0.0014415776910519556,0.21294958991898083,-0.019183850621055307,-0.17207959758806915,-0.8113173125984241
185,6.0,Inhale,2,-0.25938679583775764,0.17017306813318747,-0.30777204031813615,0.1371618585306661,8.462757198892236e-05,-0.017749192371529075,-0.23922224182578858,-0.05045407965139032,0.09374665641919941,0.04999168436342455,0.07390548182266028,-0.011612419425576342,0.31251570347628355,0.016815752906221684,0.1832968725628082,-0.038520330211534115,-1.7447738848114673,0.5307701264008149
186,6.333333333333333,Inhale,2,-0.3010234951176693,0.17954695134489,-0.3343430937131377,0.1414332930118053,-0.006934719185177431,-0.02026063263323728,-0.24953903989903484,-0.055830252171190774,0.08529814935934844,0.052885997518952656,0.025854170106320816,-0.011960491088055723,0.25696778569722656,0.028039496451986407,0.12375426554363347,-0.058630330299508385,-3.3587124475792476,1.9801490543777829
187,6.666666666666667,Inhale,2,-0.34408326346224494,0.190378637586367,-0.3673253569828248,0.15079015393571724,-0.013775422326760031,-0.02258248036577668,-0.26401287933134554,-0.058371056564234025,0.09045609138075802,0.03606172341996147,-0.02140196799214627,-0.019881646349516946,0.1977881342980786,0.030129010253724255,0.04369985304425997,-0.07852995695416345,-4.554092037622628,3.094218726839584
188,7.0,Inhale,2,-0.3838601698291933,0.20192135415651646,-0.4020009851849341,0.1644638714160488,-0.018967721551238225,-0.02421693111556711,-0.28242767772089056,-0.060176496299400785,0.10747234666519208,0.0022193494126443265,-0.061291616791215885,-0.036338228766609186,0.14266380099320222,0.024495427239837938,-0.04408983610262554,-0.09737659427730795,-4.916501355481772,3.4869993105792862
189,7.333333333333333,Inhale,2,-0.4145678696351759,0.21323050965194104,-0.43312714915622924,0.18066460041260488,-0.021490880326154805,-0.02482791202364629,-0.30282303041087816,-0.06384464852498098,0.13279653287301785,-0.042350239074264155,-0.08863664120226027,-0.05818066231413963,0.0971276331377076,0.014016086203267405,-0.12641731818009702,-0.11423331380761306,-4.2389771335476425,2.97984842789167
190,7.666666666666667,Inhale,2,-0.4307711557660576,0.2232974294797293,-0.4557385569235022,0.19696239900972662,-0.020777850133592356,-0.02421449698773529,-0.323115200415303,-0.06985445543545718,0.16185416776462674,-0.08872574401150499,-0.1005203020108868,-0.07952653054714327,0.06497799510320663,0.0008448318375329676,-0.19252483827064865,-0.1283309130593099,-2.653551216625956,1.720592132359861
191,8.0,Inhale,2,-0.428918537514232,0.23128953732588717,-0.46597877617317446,0.2108587626780054,-0.016874631690136883,-0.022395904049245827,-0.34272439560090157,-0.07641099663207195,0.1891416263885865,-0.12678263815207683,-0.09651649551332468,-0.09481550490001478,0.04790822733091813,-0.014409241487150249,-0.23644113238754877,-0.13948316048511847,-0.6252605392868499,0.15938382740505655
192,8.333333333333334,Inhale,2,-0.40838083927021823,0.23680637930552978,-0.46197138108640873,0.22033768268371653,-0.010630001820327997,-0.019714428312562607,-0.3626826583884813,-0.08210877013107443,0.20888608626259403,-0.14881129404560034,-0.07880799038662958,-0.10140959082278204,0.044423659534728814,-0.03193290829414965,-0.25804624581202584,-0.14798841718613456,1.2288117988439677,-1.1425994162877915
193,8.666666666666666,Inhale,2,-0.37136107516929145,0.23999973946619607,-0.4442308856618753,0.22420502193590133,-0.0035278753673389724,-0.01675663714931824,-0.3850101620544092,-0.0872193667956224,0.21743922255800832,-0.15446916647846656,-0.051888885675450865,-0.10026627115898595,0.049459585863490585,-0.0512313038955303,-0.2621766054300571,-0.15409910594008086,2.407508358518117,-1.7583684717534986
194,9.0,Inhale,2,-0.321937193419036,0.24149091183362525,-0.4155668449688749,0.2222094630874582,0.0028273624827407054,-0.014108551569427245,-0.4125049429858627,-0.09169394059752858,0.21511645898807902,-0.15228923680790596,-0.02175970561734111,-0.09443443594408273,0.055379292921312134,-0.07016227963196517,-0.2563067924090326,-0.157600123225722,2.7350513890523827,-1.5607829972510272
195,9.333333333333334,Inhale,2,-0.2649014250416278,0.24215414713398134,-0.3805729593145949,0.21504511682215915,0.007187221840859723,-0.012145046889584218,-0.44783027776409795,-0.09382775141798412,0.20502136733826948,-0.15484894238584052,0.0052693761338419055,-0.0865544544542507,0.0542744144803656,-0.0854966472201839,-0.24788818354566106,-0.15790259142925178,2.4009249551471705,-0.7432547679452987
196,9.666666666666666,Inhale,2,-0.2047771809666316,0.24287982395217464,-0.34471125733630864,0.20424439629453314,0.008851511131293262,-0.010987268508087695,-0.4909266051489323,-0.09259821502792807,0.19016716774070538,-0.17105553432030615,0.024032585356421554,-0.07726299229433638,0.0408144616053301,-0.09476541326061659,-0.2423789457878737,-0.15448161427270993,1.8036142034571283,0.30028894734795103
197,10.0,Inhale,2,-0.14529909837876093,0.24438530495227656,-0.31329749221774855,0.19190493509081175,0.0075818329617834464,-0.010599086735352654,-0.5371902160750116,-0.09023225864881258,0.1716783930300961,-0.20113154406372766,0.031829131053209246,-0.06535816318145334,0.014149671164332493,-0.09777193532170965,-0.24271159474588816,-0.14708449934364248,1.2825535659237184,1.17550247733444
198,10.333333333333334,Inhale,2,-0.08942917978127848,0.2470893575136785,-0.2906447544502642,0.18027779652543774,0.003396785198178765,-0.010896656424073978,-0.5792490300277968,-0.09079284401694278,0.14901139688722914,-0.2364951679806668,0.02928061672776792,-0.04908967959352204,-0.022012739351310363,-0.09653207972555072,-0.24991641332035788,-0.13558780011561644,0.9199991471591309,1.6712432138684115
199,10.666666666666666,Inhale,2,-0.039689120033828344,0.2510545473395899,-0.27950307881198977,0.17134324054083594,-0.0035652772406740006,-0.011784119534192184,-0.6108988667865713,-0.09668091828749563,0.1211609035821041,-0.26351446452426414,0.020321966730976408,-0.027557903641612615,-0.060879047414344786,-0.09405090237586933,-0.2639961497146623,-0.11985013176651463,0.5704256398039317,1.826501627140903
200,11.0,Inhale,2,0.0015744705739418974,0.25600340048706394,-0.2808298281128597,0.16649087538013893,-0.013036809037279039,-0.013147723406837073,-0.6296353111775447,-0.10740592316857217,0.08772189183383455,-0.2691466479035963,0.010981199014372209,-0.001537147424424175,-0.09485634222511002,-0.09304383249853479,-0.28434628750040847,-0.0998692979747057,0.08303172500332935,1.8315751928917916
201,11.333333333333334,Inhale,2,0.03241090641086197,0.2614033644648216,-0.2937142666891389,0.16633275687669105,-0.0245212986416389,-0.014871723376526366,-0.637012199960346,-0.12076808712564012,0.049719294361820265,-0.24614679006467352,0.007317315772048975,0.02668996495460331,-0.11804520525703617,-0.09497873574172946,-0.3095177860406441,-0.07630017067223195,-0.5019879966764227,1.8329879461908896
202,11.666666666666666,Inhale,2,0.051982053751641076,0.26661049557644295,-0.31546490953502926,0.17064490931830845,-0.03723640003395517,-0.016863452506293227,-0.6380880156111628,-0.13399229676261093,0.010147472047355768,-0.19558475984319487,0.013420973593396878,0.054319884078707324,-0.12828049511284537,-0.09928422956418466,-0.3367555026702191,-0.0509552461142884,-0.9533635252945525,1.7997470444147199
203,12.0,Inhale,2,0.061346175584478274,0.2710632253891133,-0.3419639536914988,0.17845546286099237,-0.0501306975668236,-0.01903598140365906,-0.6396443324387553,-0.1445948908790375,-0.026102143743994454,-0.1259788444623997,0.030500821789999334,0.07885729194465133,-0.12744900973766163,-0.10316988208928474,-0.3617928700128725,-0.02677529140342061,-1.0009141826609524,1.557337911987805
204,12.333333333333334,Inhale,2,0.06381318695213722,0.27449249758540933,-0.36826562129948864,0.1882647534812799,-0.0619091519641556,-0.021247515085115198,-0.6465168070030919,-0.15181655806684388,-0.05249209299801253,-0.050618407363201605,0.0576160848503226,0.09809897721060516,-0.11938903254283328,-0.10269304011864754,-0.37912549132704676,-0.007119890977951642,-0.5033397213470867,0.9567500109099404
205,12.666666666666666,Inhale,2,0.06450461136995914,0.27705454487749503,-0.38944630703901667,0.1983433648221327,-0.07110480675988153,-0.023249172469481823,-0.6585155505103533,-0.15715300458836926,-0.060749544142846654,0.015161974202150711,0.09341474371436616,0.10979432043827018,-0.1067227110878248,-0.0946770152872628,-0.3829139052644419,0.0053103592081818205,0.4445511355457368,0.035920322626000145
206,13.0,Inhale,2,0.06914790951571653,0.2792760554978371,-0.40157625932697616,0.20707655193270125,-0.07626199263165785,-0.024686745661244545,-0.6712608522467287,-0.16250734347309234,-0.04129867903967196,0.05686273474449343,0.13729472260128486,0.11188461396676386,-0.08882966208864684,-0.07836541192823358,-0.3682644561693026,0.00930155449882733,1.5159108800585441,-0.9642285460784027
207,13.333333333333334,Inhale,2,0.08255922562321708,0.28179598553638857,-0.402527357158002,0.21331060842530042,-0.07618234525303598,-0.025178013799029543,-0.6800389042560402,-0.1680152682582319,0.014373921102667036,0.06445761997465654,0.18886189577618395,0.10342743407237989,-0.06223372709069835,-0.05590348977068227,-0.3323367275612235,0.005283496407981159,2.308186361316655,-1.73376321136459
208,13.666666666666666,Inhale,2,0.10740205812355627,0.2850107324140907,-0.3923369464573091,0.21657910668560504,-0.0701493329279838,-0.02445178029201738,-0.6828242152532354,-0.17218011131696725,0.10958462363072582,0.03597141386430571,0.2464461747895468,0.08535873682712314,-0.022982420401689574,-0.03139923191546488,-0.27496918530652525,-0.005080100238281305,2.5719827108961835,-2.0578752707112815
209,14.0,Inhale,2,0.14367200902986002,0.2887762732949901,-0.3729314940595756,0.2170844598077499,-0.05809928408399782,-0.02245892672670328,-0.6805981833264353,-0.17341634776662304,0.23859512503815442,-0.020508767110303215,0.30651452382158556,0.060292967175620535,0.03082748851569453,-0.009222017004007006,-0.1987999513671734,-0.01951520047935605,2.3166419691678497,-1.8963615712324753
210,14.333333333333334,Inhale,2,0.18896392981284746,0.2923000314055087,-0.34736119173996055,0.2154493129752125,-0.040735279154983824,-0.019358769841712684,-0.6757346495464736,-0.17080460089760868,0.3858240455973341,-0.08795178683380556,0.3644926119368311,0.03161878637897888,0.09790847591823672,0.007442685243053502,-0.10896502105052452,-0.035677543326407025,1.7037942572251612,-1.3468429624359313
211,14.666666666666666,Inhale,2,0.23921328206382614,0.29428540618890814,-0.3189782406909855,0.21239584038223105,-0.019537063955922647,-0.015418705082992687,-0.6697679351202122,-0.1642022454618334,0.5298053441979542,-0.14558875375727653,0.416018802729243,0.002713059534676553,0.1739879571636061,0.017302190550435078,-0.01248644609458412,-0.051455679065626786,0.8799256790016385,-0.5472570163512486
212,15.0,Inhale,2,0.2895542972641954,0.2932809934648844,-0.29086842628979,0.20851329276946204,0.00338344635127011,-0.010941841390438247,-0.6618524171316315,-0.15477146128746258,0.6502802188246518,-0.1762930425239906,0.4578801941962438,-0.023349913910805868,0.25261006437685113,0.02095838948779409,0.08248118938564934,-0.06504302699035541,-0.059074493013780704,0.38068724437749984
213,15.333333333333334,Inhale,2,0.335116894395052,0.28809684807335895,-0.2655693505606054,0.20417698358697592,0.025541527942175613,-0.00623973208522049,-0.6491580289226613,-0.14519456770537678,0.7344910653257123,-0.1722539772801562,0.4886482662003951,-0.04378123026956119,0.32619510673069907,0.020354986807369524,0.16742699926703328,-0.07495443621421231,-0.9878162543870214,1.302531577063472
214,15.666666666666666,Inhale,2,0.3717823786907139,0.278136532659536,-0.24492400620469776,0.19960453636931677,0.04440573657861014,-0.0015967202949456348,-0.6290874189519219,-0.138525922355982,0.7799855719396989,-0.13693146185624352,0.5091611293527917,-0.05623195350028007,0.3873769796596424,0.01801974234648153,0.23441845717739404,-0.08023477665525848,-1.7240390720788417,2.029982475509121
215,16.0,Inhale,2,0.39694412333044216,0.2635402703948834,-0.2298941455353863,0.19498726665450547,0.05783140445438071,0.002768916210785535,-0.601166271362449,-0.13693215603351216,0.7937953967086483,-0.08363677360394148,0.5226322198261798,-0.05945460094372221,0.4305346827940743,0.016503731900607915,0.2773978653169135,-0.08088474586445778,-2.1206635297254457,2.3655135859509375
216,16.333333333333332,Inhale,2,0.4101412362957269,0.2451045300254649,-0.22032554594911,0.19058621297096529,0.06458929306317882,0.006701859835013002,-0.5668418443916946,-0.14193433561224159,0.7888995470670981,-0.03127612968817175,0.5338152463663739,-0.05407214665126855,0.4529980086728553,0.01807697035029645,0.2935783841589722,-0.07814621501436685,-2.17144874918625,2.2189551277550947
217,16.666666666666668,Inhale,2,0.4132075241681197,0.22402609194314366,-0.21493772986984738,0.1867015286059911,0.06476248327232197,0.010068464699401107,-0.5284319923851424,-0.15476960066729953,0.7785447350834541,0.0024868999387802127,0.5468889625653907,-0.04255945516063835,0.45511320563224417,0.024448782272031296,0.284103779845173,-0.07418891575835923,-2.0230612230385923,1.6783047930457486
218,17.0,Inhale,2,0.4097098001567942,0.2015936749756256,-0.2116999036724161,0.18354302391331245,0.05976612968584461,0.012735876361037823,-0.4892556517670047,-0.17488916196200352,0.7698412594041991,0.008814663162704439,0.5629706313651457,-0.028169017999341166,0.4392257010205726,0.036267967086011696,0.253507700086158,-0.07121662362363868,-1.9032070183163787,0.9598788685203068
219,17.333333333333332,Inhale,2,0.4039353644159411,0.17896565741185808,-0.20834186046359712,0.18111801017586407,0.05199970194344633,0.014616720710896014,-0.4541588345366987,-0.1983973067148805,0.7602232782889207,-0.008398766629484598,0.5792367602010376,-0.013636771783070234,0.408673033522296,0.05252515509983323,0.20844382423413563,-0.0706024629545769,-2.026204226148937,0.2938811435432949
220,17.666666666666668,Inhale,2,0.3997517849975784,0.15710496398637885,-0.2029515068008341,0.1792264244753802,0.04423065477572853,0.015749788257927215,-0.4287049180081355,-0.21933473967484937,0.73966177204639,-0.036038907034589014,0.5905543869303794,-0.0007363916939047061,0.36710665461045544,0.07050260979726214,0.15603013440014335,-0.07253095558908729,-2.5091553246598868,-0.1580786346610984
221,18.0,Inhale,2,0.39956981927596236,0.13683976768399891,-0.19466902399076616,0.17757695546767363,0.03881501616246597,0.01633627751681745,-0.4177571135695556,-0.23249422468446432,0.6973258084281354,-0.06084215246773852,0.5924917558520718,0.009124261269267723,0.3176986502683251,0.0866461216350414,0.1019122666612592,-0.07616572059781458,-3.3166526898509705,-0.3296323073600978
222,18.333333333333332,Inhale,2,0.4039456380941411,0.11895753049130615,-0.1838860144111441,0.17596395955154637,0.03711479977127499,0.016684165176914217,-0.42475679525286225,-0.2346631524867066,0.6282279910769287,-0.07703368139734393,0.5837804502184378,0.014248479303550431,0.26260732728968555,0.0977470959544129,0.048875259826389836,-0.08022157414390596,-4.2587205577295695,-0.24532345652224766
223,18.666666666666668,Inhale,2,0.412019956635509,0.10423799085235887,-0.17180792382771806,0.17441279188725964,0.039422555634240596,0.017085572670077317,-0.45091239023844576,-0.22475201842961617,0.535719914486918,-0.08721015096979781,0.5664872629570519,0.013244261360287564,0.20311961803404227,0.10159445530915466,-0.003322660080728282,-0.08359899117141356,-5.051273568281005,0.005187832537542705
224,19.0,Inhale,2,0.4223152160900164,0.09335747942289424,-0.15992039156221916,0.17322785463593435,0.04525724912950739,0.01770457734512307,-0.4936874385696284,-0.20476700839518888,0.4290617809590037,-0.0977526626348003,0.5438255137869813,0.0066884012812275465,0.14017865263446003,0.0970872759250781,-0.056988030382572157,-0.08579172493819462,-5.417764917934805,0.30362988008395925
225,19.333333333333332,Inhale,2,0.43360456308207945,0.08666887847355335,-0.14938228584359448,0.17290548987560642,0.05379251256580773,0.018545689484824376,-0.5465039479628732,-0.18033271853764474,0.3189514474280226,-0.11370001446649496,0.5179841374026419,-0.0020938681549084954,0.07507921032876465,0.08430684073852791,-0.11467121188244515,-0.08716875521446454,-5.194700302409127,0.5239242181312436
226,19.666666666666668,Inhale,2,0.44557171507588805,0.0839760234542881,-0.14051651191151998,0.1739255912172587,0.06423603197570453,0.019491018893399853,-0.6012184125330026,-0.1585290593713096,0.21397697712150682,-0.13578053160704923,0.49002885866931534,-0.008367836887232158,0.00985963099418763,0.0647309551253019,-0.1774101831743891,-0.08891464864820842,-4.412788638024286,0.5499767749131266
227,20.0,Inhale,2,0.45878365155632517,0.08447046623024887,-0.13292868726056695,0.1765388762185749,0.07595132080797388,0.020343402355934025,-0.6512906998305713,-0.14470751061277437,0.11890687324205045,-0.1594162216889072,0.4615386517466076,-0.008464231834903309,-0.05295563456407435,0.04140404654660114,-0.24388197945633389,-0.09233956275158246,-3.327242554573034,0.3265325238702694
228,-5.0,Exhale,3,0.05087481643732494,-0.07386910016991846,0.16405922739787993,-0.0707492858984281,-0.016856798442360005,0.010705594856811055,0.10483858954905326,0.02033809312785229,-0.37369733336770183,-0.015970481515055267,-0.20587681480753206,-0.013214624760925817,-0.306971868717311,-0.030270910390738322,-0.17652981708419974,-0.02509592775563169,-2.808931619555585,0.5613474692437741
229,-4.666666666666667,Exhale,3,0.06883410204800222,-0.06342015673448373,0.1490376877406958,-0.07195667131819991,-0.019358558974103737,0.009834578405256394,0.08699956440793952,0.01027886543625546,-0.2949285841283034,-0.05072441958561588,-0.16248862476261364,-0.00910908396552146,-0.29158303162720284,-0.03156511109434086,-0.15570947740651142,-0.026840802684473048,-3.136713162214156,1.204834067697698
230,-4.333333333333333,Exhale,3,0.07829286201058058,-0.05041576856519337,0.12369527057580919,-0.06941327670178987,-0.022186823570398584,0.007875391671630058,0.06775446567595014,0.0020043735159401685,-0.21440807396925834,-0.07004688972511641,-0.12080263945600402,0.0002796126063744974,-0.2697159250942653,-0.03176220017415917,-0.1399938454034911,-0.0222089842603473,-2.9864789077724296,1.650973884671929
231,-4.0,Exhale,3,0.07982727849387243,-0.03533174567105438,0.0894536288757105,-0.061919205837607405,-0.025641204757218056,0.004919370904054899,0.046642683014173764,-0.004976295785369877,-0.13866602614197468,-0.07184630631433442,-0.0841101846490012,0.01338467928015548,-0.24179096999050198,-0.030468985333513988,-0.1317592983125352,-0.013229801961123678,-2.3870657367216355,1.7726548510275264
232,-3.6666666666666665,Exhale,3,0.07509536432895898,-0.019202836608027036,0.04985054407006494,-0.04927829709150749,-0.029324974789624248,0.0013137493747875056,0.025258107368270912,-0.011452278784610283,-0.07124970848134336,-0.060870903301298254,-0.0536006610092835,0.02758478768064789,-0.2080390227441734,-0.026674442511254497,-0.1292392749847117,-0.0028293886719736663,-1.5123534154400828,1.6048279847369258
233,-3.3333333333333335,Exhale,3,0.06608415737613361,-0.0034579530688202756,0.009589802623356843,-0.03236025152102416,-0.032203471959798446,-0.002443492866336003,0.006465879572241838,-0.017647439029491785,-0.013074939562634455,-0.045059881558748495,-0.02817041319751123,0.039547499417146664,-0.16838807613209192,-0.019721043411396483,-0.12722359396843658,0.006446717659611811,-0.612512977271182,1.2919740367624595
234,-3.0,Exhale,3,0.05423982905941349,0.010376207141296227,-0.026682825762760543,-0.012906303071699484,-0.03285188991079759,-0.005794912799072286,-0.007531647849488291,-0.022164302221279703,0.03643225202331816,-0.030688688351934345,-0.005431222260451198,0.04604476588790019,-0.12246630141225467,-0.009948267178388653,-0.11937725165099253,0.013330062199555326,0.09510012787457515,0.9612994988729427
235,-2.6666666666666665,Exhale,3,0.04002882215661024,0.02101645111004717,-0.05529104404441976,0.006891275278163579,-0.0298431039931998,-0.008214452321354614,-0.016193393300139282,-0.022773931139636383,0.07798877232750226,-0.01978969423325935,0.016741963115604358,0.04508720865297399,-0.0696960334457081,0.0012395462441287895,-0.10067874677945168,0.01772716785985821,0.5116642468923359,0.6592688425915104
236,-2.3333333333333335,Exhale,3,0.023126687345132357,0.027725380480982394,-0.07403824986534228,0.024883637979528653,-0.02224053062085761,-0.009306217980838454,-0.020205761090579925,-0.018791271069376045,0.11151618400666004,-0.010925662337307697,0.03918324624711914,0.036520082377573634,-0.009830857673734997,0.011833633534993511,-0.06869346058789517,0.019977324417293645,0.6822780757147853,0.3777012445130927
237,-2.0,Exhale,3,0.0029996123456256887,0.030499207667040368,-0.08242734036100603,0.03936316288819906,-0.010068793392151346,-0.008882516856869301,-0.02130400798203617,-0.011712336636813989,0.13617600066443636,-0.0017361349678883487,0.061210442186676844,0.021805384343870676,0.056466481861828545,0.019714004442003698,-0.023423980286326432,0.02028466114901566,0.7675591388794162,0.08001136529583823
238,-1.6666666666666667,Exhale,3,-0.020477962867714635,0.03007796883207916,-0.0815676867472049,0.049282747939517244,0.005510196825829831,-0.007012814261365276,-0.02265722724927795,-0.0031655237302742863,0.15105943265781388,0.009232435590966426,0.08093586099262595,0.0033868995292878038,0.12733964614890672,0.023222302053795545,0.033579275399687546,0.018669188263843974,0.9623428444479547,-0.3040775554186874
239,-1.3333333333333333,Exhale,3,-0.04671619664111122,0.027759254891573684,-0.07379890607684762,0.054314851374814545,0.022474540369270546,-0.004057824225810308,-0.02776731806133514,0.006266169761506841,0.15528546951289735,0.022944785242602378,0.09589687691573004,-0.015994199437635064,0.19930975684930774,0.022215324935243072,0.09971980201729667,0.015132990513366166,1.3798490053334358,-0.8549275659301584
240,-1.0,Exhale,3,-0.07460281147824359,0.02506336345527953,-0.06218722564785122,0.05481032804651337,0.038495959846874594,-0.0006558866762465406,-0.03778796116414663,0.015410305104825276,0.14767882588700912,0.041350048800195764,0.10375113047922582,-0.033755293776773464,0.2666508430128557,0.01908834084583828,0.17078621182155196,0.009603663639880107,1.9602865819210662,-1.5719010528816517
241,-0.6666666666666666,Exhale,3,-0.10312394317068711,0.023359836063015612,-0.050119433493540845,0.05171224425494602,0.051452550980313025,0.002401676047236923,-0.05046877207244323,0.021339696394905024,0.12777341930655087,0.06698056544080944,0.1026562313936496,-0.04761867584070202,0.3214338588988072,0.01847321770563897,0.23982786903628212,0.0017041145842828073,2.4629101532471607,-2.282557013289192
242,-0.3333333333333333,Exhale,3,-0.13208014966875797,0.023595504501733623,-0.04109132565432421,0.046459196147765135,0.059794806209086004,0.0043988554783050944,-0.06235368814452718,0.0213731622976531,0.09797104564174591,0.10017890640254375,0.09128097041439649,-0.0558720250441126,0.3551988407727628,0.024917843482709902,0.29702829582914564,-0.009193561288330815,2.569223852660246,-2.675984523626114
243,0.0,Exhale,3,-0.16240246777513975,0.026224386674449488,-0.038482123630219696,0.0408658475308087,0.06284809617913562,0.004918901249810799,-0.07168951267365545,0.015672712757914268,0.0641432636232826,0.13697232041344076,0.06882383839736865,-0.05807701695026039,0.3620826592927752,0.03970674684944018,0.33168729236058764,-0.02347742366482757,2.052841792004094,-2.4754455342678914
244,0.3333333333333333,Exhale,3,-0.19572948990123337,0.03131752172809555,-0.04503032966025638,0.03691869278893567,0.06101208600119572,0.003958325602847962,-0.07917476011643033,0.007081300644744485,0.03356875112699758,0.16988096623968038,0.03537119730749748,-0.05577043768054269,0.34160996075693106,0.059408969278208545,0.33560127774694115,-0.04080899313420374,0.9016060523264051,-1.6114329147320148
245,0.6666666666666666,Exhale,3,-0.23335048848980317,0.03871437165292811,-0.062028539436079895,0.03644716527222989,0.05565037603797507,0.001905905493400176,-0.08690529311777813,-0.0010112418513438244,0.012296208799619887,0.19073863781968295,-0.007382371237217534,-0.052477509190762016,0.2991187109190173,0.0776662998754822,0.30594856039076856,-0.060145472724682535,-0.6710882348969932,-0.26934547573277573
246,1.0,Exhale,3,-0.27498718776971487,0.048088254864630635,-0.08859959283108144,0.040718599753369084,0.048631029280808716,-0.0006055347683080269,-0.09722209119102439,-0.006387414371144277,0.0038477017397689265,0.19363295097521105,-0.055433682953557,-0.052825580853241405,0.24357079313996036,0.08889004342124691,0.24640595337159382,-0.08025547281265683,-2.285026797664773,1.1800334522441924
247,1.3333333333333333,Exhale,3,-0.3180469561142905,0.05891994110610765,-0.12158185610076856,0.050075460677281025,0.04179032613922611,-0.002927382500847425,-0.11169593062333508,-0.008928218764187522,0.009005643761178505,0.17680867687621987,-0.1026898210520241,-0.060746736114702625,0.1843911417408124,0.09097955722298474,0.1663515408722203,-0.1001550994673119,-3.4804063877081544,2.2941031247059933
248,1.6666666666666667,Exhale,3,-0.3578238624812389,0.07046265767625709,-0.15625748430287784,0.06374917815761258,0.03659802691474792,-0.004561833250637857,-0.13011072901288007,-0.010733658499354284,0.026021899045612563,0.14296630286890272,-0.1425794698510937,-0.07720331853179487,0.12926680843593602,0.08534597420909844,0.07856185172533481,-0.11900173679045639,-3.8428157055672982,2.6868837084456954
249,2.0,Exhale,3,-0.38853156228722147,0.08177181317168167,-0.187383648274173,0.07994990715416866,0.03407486813983134,-0.0051728141587170364,-0.1505060817028677,-0.014401810724934483,0.051346085253438326,0.09839671438199425,-0.1699244942621381,-0.09904575207932531,0.0837306405804414,0.0748666331725279,-0.0037656303521366795,-0.1358584563207615,-3.1652914836331685,2.1797328257580797
250,2.3333333333333335,Exhale,3,-0.4047348484181032,0.09183873299946993,-0.20999505604144592,0.09624770575129041,0.03478789833239379,-0.004559399122806039,-0.17079825170729254,-0.020411617635410682,0.08040372014504722,0.05202120944475341,-0.18180815507076462,-0.12039162031232896,0.05158100254594043,0.061695378806793474,-0.0698731504426883,-0.14995605557245834,-1.579865566711482,0.9204765302262705
251,2.6666666666666665,Exhale,3,-0.40288223016627756,0.09983084084562781,-0.22023527529111817,0.11014406941956921,0.03869111677584926,-0.002740806184316575,-0.19040744689289113,-0.026968158832025448,0.107691178769007,0.013964315304181551,-0.17780434857320251,-0.13568059466520047,0.03451123477365193,0.04644130548211026,-0.11378944455958843,-0.1611083029982669,0.4484251106276243,-0.640731774728534
252,3.0,Exhale,3,-0.38234453192226375,0.1053476828252704,-0.2162278802043525,0.11962298942528031,0.04493574664565815,-5.933044763335456e-05,-0.21036570968047089,-0.03266593233102793,0.12743563864301452,-0.008064340589341934,-0.1600958434465074,-0.14227468058796774,0.031026666977462612,0.028917638675110855,-0.1353945579840655,-0.169613559699283,2.3024974487584418,-1.9427150184213822
253,3.3333333333333335,Exhale,3,-0.345324767821337,0.10854104298593671,-0.19848738477981898,0.12349032867746514,0.05203787309864717,0.0028984607156110126,-0.23269321334639875,-0.0377765289955759,0.13598877493842879,-0.013722213022208165,-0.13317673873532868,-0.14113136092417164,0.03606259330622438,0.009619243073730204,-0.13952491760209673,-0.1757242484532293,3.481194008432591,-2.5584840738870893
254,3.6666666666666665,Exhale,3,-0.29590088607108156,0.1100322153533659,-0.16982334408681868,0.12149476982902198,0.05839311094872685,0.005546546295502006,-0.2601879942778523,-0.042251102797482086,0.1336660113684995,-0.011542283351647553,-0.10304755867721893,-0.1352995257092684,0.04198230036404593,-0.00931173266270466,-0.13365510458107221,-0.17922526573887043,3.8087370389668567,-2.3608985993846177
255,4.0,Exhale,3,-0.23886511769367333,0.11069545065372198,-0.13482945843253863,0.11433042356372297,0.06275297030684587,0.007510050975345034,-0.2955133290560875,-0.04438491361793762,0.12357091971868997,-0.01410198892958211,-0.07601847692603592,-0.12741954421943638,0.0408774219230994,-0.024646100250923387,-0.1252364957177007,-0.17952773394240024,3.4746106050616445,-1.5433703700788892
256,4.333333333333333,Exhale,3,-0.17874087361867713,0.1114211274719153,-0.09896775645425235,0.10352970303609693,0.06441725959727941,0.008667829356841558,-0.33860965644092184,-0.04315537722788157,0.10871672012112586,-0.030308580864047738,-0.057255267703456264,-0.11812808205952204,0.0274174690480639,-0.033914866291356094,-0.11972725795991332,-0.17610675678585835,2.8772998533716025,-0.49982665478563953
257,4.666666666666667,Exhale,3,-0.11926279103080643,0.11292660847201717,-0.06755399133569229,0.09119024183237556,0.06314758142776959,0.009056011129576597,-0.38487326736700117,-0.04078942084876608,0.09022794541051657,-0.06038459060746926,-0.04945872200666857,-0.10622325294663901,0.0007526786070662933,-0.036921388352449146,-0.12005990691792778,-0.16870964185679094,2.3562392158381926,0.37538687520084946
258,5.0,Exhale,3,-0.063392872433324,0.11563066103341912,-0.044901253568207955,0.07956310326700153,0.05896253366416491,0.008758441440855275,-0.4269320813197864,-0.04135000621689627,0.06756094926764963,-0.09574821452440839,-0.0520072363321099,-0.08995476935870772,-0.03540973190857656,-0.03568153275629023,-0.1272647254923975,-0.1572129426287649,1.993684797073605,0.8711276117348209
259,5.333333333333333,Exhale,3,-0.013652812685873867,0.11959585085933054,-0.0337595779299335,0.07062854728239974,0.05200047122531214,0.007870978330737069,-0.45858191807856097,-0.04723808048744913,0.03971045596252458,-0.12276751106800568,-0.06096588632890141,-0.06842299340679829,-0.07427603997161099,-0.03320035540660882,-0.14134446188670197,-0.14147527427966308,1.644111289718406,1.0263860250073125
260,5.666666666666667,Exhale,3,0.02761077792189637,0.12454470400680455,-0.03508632723080347,0.06577618212170273,0.042528939428707106,0.00650737445809218,-0.47731836246953424,-0.05796308536852568,0.006271444214255038,-0.12839969444733793,-0.07030665404550561,-0.04240223718960986,-0.10825333478237623,-0.032193285529274286,-0.16169459967244812,-0.12149444048785416,1.1567173749178037,1.0314595907582012
261,6.0,Exhale,3,0.05844721375881645,0.12994466798456222,-0.0479707658070827,0.06561806361825481,0.031044449824347245,0.0047833744884028875,-0.4846952512523356,-0.07132524932559363,-0.031731153257759256,-0.10539983660841513,-0.07397053728782885,-0.014175124810582371,-0.13144219781430236,-0.03412818877246896,-0.18686609821268377,-0.09792531318538038,0.5716976532380514,1.0328723440572989
262,6.333333333333333,Exhale,3,0.07801836109959555,0.13515179909618358,-0.069721408652973,0.06993021605987221,0.01832934843203098,0.002791645358636025,-0.4857710669031523,-0.08454945896256444,-0.07130297557222375,-0.054837806386936465,-0.06786687946648094,0.013454794313521643,-0.14167748767011157,-0.03843368259492416,-0.21410381484225874,-0.07258038862743683,0.12032212461992169,0.9996314422811292
263,6.666666666666667,Exhale,3,0.08738248293243275,0.13960452890885394,-0.09622045280944254,0.07774076960255616,0.005435050899162549,0.0006191164612701922,-0.48732738373074486,-0.09515205307899101,-0.10755259136357398,0.014768108993858688,-0.050787031269878484,0.03799220217946564,-0.14084600229492783,-0.04231933512002423,-0.23914118218491212,-0.04840043391656904,0.07277146725352168,0.7572223098542143
264,7.0,Exhale,3,0.08984949430009169,0.14303380110514996,-0.12252212041743236,0.08755006022284371,-0.006343403498169456,-0.001592417220185946,-0.4941998582950813,-0.10237372026679736,-0.13394254061759206,0.0901285460930568,-0.023671768209555216,0.05723388744541948,-0.1327860251000995,-0.04184249314938703,-0.2564738034990864,-0.028745033491100077,0.5703459285673875,0.15663440877634996
265,7.333333333333333,Exhale,3,0.09054091871791362,0.14559584839723563,-0.14370280615696035,0.09762867156369648,-0.015539058293895382,-0.00359407460455257,-0.5061986018023428,-0.10771016678832275,-0.14219999176242618,0.1559089276584091,0.01212689065448834,0.06892923067308451,-0.120119703645091,-0.0338264683180023,-0.2602622174364816,-0.016314783304966614,1.518236785460211,-0.7641952795075904
266,7.666666666666667,Exhale,3,0.09518421686367101,0.14781735901757773,-0.15583275844491992,0.10636185867426505,-0.020696244165671705,-0.0050316477963152926,-0.5189439035387182,-0.11306450567304586,-0.12274912665925147,0.19760968820075184,0.05600686954140706,0.07101952420157819,-0.10222665464591305,-0.01751486495897308,-0.24561276834134219,-0.012323588014321103,2.589596529973018,-1.7643441482119933
267,8.0,Exhale,3,0.10859553297117155,0.15033728905612923,-0.1567838562759457,0.1125959151668642,-0.02061659678704983,-0.00552291593410029,-0.5277219555480298,-0.1185724304581854,-0.06707652651691248,0.20520457343091494,0.10757404271630615,0.0625623443071942,-0.07563071964796454,0.004947057198578238,-0.20968503973326313,-0.016341646105167276,3.381872011231129,-2.5338788134981804
268,8.333333333333334,Exhale,3,0.13343836547151075,0.1535520359338313,-0.14659344557525283,0.11586441342716884,-0.01458358446199765,-0.0047966824270881244,-0.5305072665452251,-0.12273727351692076,0.0281341760111463,0.17671836732056412,0.16515832172966902,0.04449364706193746,-0.036379412958955776,0.029451315053795626,-0.15231749747856496,-0.02670524275142974,3.6456683608106575,-2.8579908728448724
269,8.666666666666666,Exhale,3,0.1697083163778145,0.15731757681473077,-0.1271879931775193,0.11636976654931368,-0.0025335356180116713,-0.0028038288617740284,-0.5282812346184247,-0.12397350996657655,0.15714467741857488,0.12023818634595518,0.22522667076170774,0.019427877410434852,0.017430495958428327,0.0516285299652535,-0.07614826353921306,-0.041140342992504485,3.3903276190823237,-2.696477173366066
270,9.0,Exhale,3,0.21500023716080194,0.16084133492524938,-0.1016176908579043,0.11473461971677629,0.014830469311002323,0.0002963280232165677,-0.5234177008384631,-0.12136176309756219,0.3043735979777546,0.05279516662245285,0.2832047588769533,-0.009246303386206804,0.08451148336097052,0.06829323221231401,0.013686666777435812,-0.05730268583955546,2.7774799071396354,-2.1469585645695215
271,9.333333333333334,Exhale,3,0.26524958941178056,0.16282670970864874,-0.07323473980892925,0.11168114712379486,0.0360286845100635,0.004236392781936564,-0.5174509864122017,-0.11475940766178691,0.44835489657837474,-0.004841800301018139,0.3347309496693652,-0.03815203023050912,0.1605909646063399,0.07815273751969558,0.11016524173337622,-0.07308082157877521,1.9536113289161126,-1.3473726184848391
272,9.666666666666666,Exhale,3,0.3155906046121499,0.161822296984625,-0.045124925407733746,0.10779859951102584,0.05894919481725625,0.008713256474491005,-0.509535468423621,-0.10532862348741608,0.5688297712050723,-0.03554608906773221,0.3765923411363659,-0.06421500367599155,0.2392130718195849,0.08180893645705459,0.20513287721360968,-0.08666816950350385,1.0146111569006935,-0.4194283577560907
273,10.0,Exhale,3,0.36115320174300647,0.15663815159309957,-0.0198258496785491,0.10346229032853971,0.08110727640816176,0.013415365779708761,-0.49684108021465084,-0.09575172990533029,0.6530406177061329,-0.03150702382389779,0.40736041314051735,-0.08464632003474687,0.3127981141734329,0.08120553377663002,0.2900786870949936,-0.09657957872736075,0.0858693955274528,0.5024159749298812
274,10.333333333333334,Exhale,3,0.3978186860386683,0.14667783617927663,0.000819494677358511,0.09888984311088056,0.09997148504459628,0.018058377569983616,-0.47677047024391145,-0.0890830845559355,0.6985351243201193,0.0038154916000148853,0.4278732762929139,-0.09709704326546574,0.3739799871023762,0.07887028931574204,0.3570701450053544,-0.10185991916840692,-0.6503534221643673,1.2298668733755305
275,10.666666666666666,Exhale,3,0.4229804306783966,0.13208157391462405,0.015849355346669942,0.09427257339606926,0.11339715292036685,0.022424014075714788,-0.44884932265443855,-0.08748931823346566,0.7123449490890688,0.05711017985231692,0.44134436676630207,-0.10031969070890788,0.4171376902368081,0.07735427886986843,0.40004955314487395,-0.1025098883776062,-1.0469778798109715,1.5653979838173466
276,11.0,Exhale,3,0.43617754364368144,0.11364583354520552,0.02541795493294627,0.08987151971252909,0.12015504152916495,0.026356957699942254,-0.4145248956836841,-0.09249149781219508,0.7074490994475185,0.10947082376808666,0.45252739330649605,-0.09493723641645423,0.4396010161155891,0.07892751731955695,0.41623007198693257,-0.09977135752751529,-1.0977630992717757,1.4188395256215038
277,11.333333333333334,Exhale,3,0.4392438315160741,0.0925673954628843,0.03080577101220886,0.08598683534755489,0.12032823173830813,0.02972356256433036,-0.3761150436771319,-0.10532676286725302,0.6970942874638746,0.1432338533950386,0.46560110950551287,-0.08342454492582403,0.441716213074978,0.08529932924129179,0.40675546767313325,-0.09581405827150766,-0.949375573124118,0.8781891909121582
278,11.666666666666666,Exhale,3,0.4357461075047487,0.07013497849536625,0.03404359720964017,0.08282833065487623,0.11533187815183076,0.032390974225967074,-0.3369387030589942,-0.12544632416195703,0.6883908117846196,0.14956161661896286,0.4816827783052679,-0.06903410776452684,0.4258287084633064,0.0971185140552722,0.37615938791411835,-0.09284176613678712,-0.8295213684019045,0.15976326638671637
279,12.0,Exhale,3,0.42997167176389556,0.047506960931598716,0.03740164041845913,0.08040331691742786,0.10756545040943248,0.034271818575825265,-0.30184188582868826,-0.148954468914834,0.6787728306693412,0.1323481868267738,0.49794890714115975,-0.05450186154825591,0.3952760409650298,0.11337570206909374,0.33109551206209603,-0.09222760546772531,-0.9525185762344626,-0.5062344585902957
280,12.333333333333334,Exhale,3,0.42578809234553294,0.025646267506119483,0.042791994081222154,0.07851173121694398,0.09979640324171468,0.035404886122856465,-0.27638796930012505,-0.16989190187480288,0.6582113244268105,0.10470804642166938,0.5092665338705017,-0.041601481459090386,0.3537096620531892,0.13135315676652265,0.27868182222810367,-0.09415609810223573,-1.4354696747454125,-0.9581942367946888
281,12.666666666666666,Exhale,3,0.42560612662391684,0.005381071203739552,0.05107447689129009,0.07686226220923743,0.09438076462845212,0.0359913753817467,-0.26544016486154515,-0.1830513868844178,0.615875360808556,0.07990480098851989,0.5112039027921941,-0.03174082849591796,0.30430165771105894,0.14749666860430188,0.22456395448921954,-0.09779086311096302,-2.2429670399364965,-1.1297479094936884
282,13.0,Exhale,3,0.42998194544209556,-0.012501165988953223,0.061857486470912146,0.07524926629311016,0.09268054823726114,0.03633926304184347,-0.27243984654485176,-0.18522031468666011,0.5467775434573493,0.06371327205891449,0.5024925971585601,-0.026616610461635246,0.24921033473241938,0.15859764292367343,0.17152694765435017,-0.1018467166570544,-3.1850349078150955,-1.0454390586558384
283,13.333333333333334,Exhale,3,0.4380562639834634,-0.0272207056279005,0.07393557705433819,0.07369809862882344,0.09498830410022674,0.03674067053500657,-0.29859544153043527,-0.17530918062956966,0.4542694668673385,0.05353680248646059,0.485199409897174,-0.02762082840489812,0.18972262547677607,0.16244500227841518,0.11932902774723204,-0.105224133684562,-3.977587918366531,-0.7949277695960478
284,13.666666666666666,Exhale,3,0.4483515234379708,-0.03810121705736511,0.0858231093198371,0.07251316137749816,0.10082299759549354,0.037359675210052325,-0.341370489861618,-0.15532417059514236,0.3476113333394242,0.0429942908214581,0.46253766072710345,-0.034176688483958134,0.12678166007719383,0.1579378228943386,0.06566365744538818,-0.10741686745134305,-4.344079268020331,-0.4964857220496314
285,14.0,Exhale,3,0.4596408704300339,-0.044789818006706006,0.09636121503846178,0.07219079661717019,0.10935826103179387,0.03820078734975363,-0.39418699925486267,-0.13088988073759822,0.2375009998084431,0.027046938989763448,0.43669628434276414,-0.04295895792009417,0.06168221777149844,0.1451573877077884,0.00798047594551519,-0.10879389772761298,-4.121014652494653,-0.276191384002347
286,14.333333333333334,Exhale,3,0.47160802242384253,-0.047482673025971256,0.10522698897053626,0.07321089795882249,0.11980178044169068,0.0391461167583291,-0.4489014638249921,-0.1090862215712631,0.1325265295019273,0.004966421849209165,0.4087410056094375,-0.04923292665241783,-0.0035373615630785718,0.1255815020945624,-0.054758495346428765,-0.11053979116135686,-3.339102988109812,-0.25013882722046404
287,14.666666666666666,Exhale,3,0.48481995890427965,-0.04698823025001049,0.11281481362148933,0.07582418296013867,0.13151706927396004,0.03999850022086328,-0.498973751122561,-0.09526467281272788,0.03745642562247093,-0.018669268232648802,0.38025079868672973,-0.049329321600088995,-0.06635262712134055,0.10225459351586164,-0.12123029162837351,-0.1139647052647309,-2.25355690465856,-0.4735830782633212
288,15.0,Exhale,3,0.5001929783196049,-0.044543442600953644,0.11980981995318536,0.07996406085259507,0.14394256513171988,0.04053032557960594,-0.5403311841803672,-0.09200699513030111,-0.046046378124671085,-0.03552881091845658,0.35494533513522747,-0.04245630029530832,-0.12385362089650988,0.07956320489479271,-0.18734063789834265,-0.11973609104963115,-1.271766399829427,-0.89459048529468
289,15.333333333333334,Exhale,3,0.5183826435492496,-0.041448580265039524,0.1268105362029915,0.0852995221619385,0.15652668320557103,0.040577302580621866,-0.570330832797012,-0.09959692559542743,-0.11629257346259525,-0.03854057562521155,0.3384031682629581,-0.03073012341131683,-0.17224009206385488,0.06226418584038269,-0.24618330423028822,-0.12751604459923527,-0.7599620974992075,-1.383793496671986
290,15.666666666666666,Exhale,3,0.5391680570025683,-0.038695570979468435,0.13384362111103876,0.09137190574301828,0.16868612174808423,0.040131841703530596,-0.5872197682537967,-0.11571832099634623,-0.1685118458470138,-0.02724909053460041,0.3356397047600377,-0.017597871009930346,-0.20660452363240725,0.053921522107536764,-0.28932920866189105,-0.13583793013059056,-0.8278046467502664,-1.821385275817176
291,16.0,Exhale,3,0.5610909747876152,-0.03675877587690429,0.14009405819528167,0.0977569739022867,0.17972685727164323,0.03932808538274061,-0.5906590855016538,-0.13544741672505872,-0.19506320241021166,-0.008162896210664457,0.3484824173089299,-0.0059624659163301915,-0.2218411713294065,0.05565269287876095,-0.3094682490465872,-0.14227152181085423,-1.2456452379159888,-2.162459587958218
292,16.333333333333332,Exhale,3,0.5815716438268617,-0.035614708709946076,0.14413869227086756,0.10418949406833615,0.18874798988875366,0.038306795184725524,-0.5822730199310813,-0.15340813775681517,-0.1893101860071165,0.010253427564804242,0.3743738405445233,0.0028203957149929796,-0.21455883047057495,0.06600165389913475,-0.30319294691787746,-0.1440101642426331,-1.5564476329153396,-2.4506147625117145
293,16.666666666666668,Exhale,3,0.5973694389541614,-0.03494578954305667,0.1445058669658611,0.11059499942089492,0.19462569344022893,0.037103153038333885,-0.5659145661130088,-0.1659675510551196,-0.1499957749583233,0.02261103303666264,0.4070528270168918,0.008843959096439627,-0.18474880258139553,0.081777115162218,-0.2723681064564573,-0.13869743105343046,-1.299253312565869,-2.7994568310921317
294,17.0,Exhale,3,0.6053874181757539,-0.03441936675002107,0.14049088886105493,0.11702669214831136,0.19627880403620457,0.03569573625793805,-0.5478223628915927,-0.1706574163769273,-0.08229381747609563,0.027587705060222272,0.4390701927201427,0.01286195651352352,-0.13572436133311153,0.09906575670122711,-0.22308553162156175,-0.12531440429422272,-0.21274517809521723,-3.34764020693546
295,17.333333333333332,Exhale,3,0.6037681156935784,-0.03393428437790445,0.13291248967840327,0.12356792864278071,0.19326610253288362,0.034162037971849794,-0.5355839481127658,-0.1647904349118417,0.005067330089269471,0.025928633735468536,0.4649201321719968,0.015548004797522236,-0.07243101108544861,0.11406126826665706,-0.1628225421273981,-0.1048486160806936,1.650265210420172,-4.173950390583813
296,17.666666666666668,Exhale,3,0.5928475315802267,-0.03376772044901529,0.12421157316194795,0.13026088862318452,0.18639376901881718,0.032766036701821044,-0.5346954541701322,-0.14684134855306627,0.10377173599164373,0.018633527334677578,0.4828324486228416,0.017397633979381027,0.0003448226758879123,0.12401582312776795,-0.09751802281007832,-0.08031619973145877,3.9160275982050714,-5.197388853447913
297,18.0,Exhale,3,0.575440977280261,-0.03458374324676502,0.11764775750974707,0.13706911269638664,0.17784553249466356,0.031904815677854755,-0.5446560503410467,-0.11918701169352819,0.20768910312854721,0.007079777148959088,0.49447163351291257,0.019096951660408288,0.07871115235141644,0.12835374775139186,-0.029985005324587345,-0.05595332444449006,6.003733673478963,-6.1441249186229285
298,18.333333333333332,Exhale,3,0.5562115087354182,-0.03729019263178055,0.11593768792239721,0.14385981231522746,0.17063676186509838,0.03196882604502608,-0.5585948528397486,-0.08784984106190157,0.31174029369612993,-0.005502376054572228,0.5035461607877085,0.021505749752725446,0.15946410111432885,0.12915684245701098,0.03990037423630278,-0.03588909111442315,7.34217922708843,-6.647895873162315
299,18.666666666666668,Exhale,3,0.5403973398886743,-0.0427838947634246,0.12018987253943027,0.1503913895786107,0.1677242472266046,0.03318623975655806,-0.5671711282454472,-0.05918961200917884,0.41058542231058515,-0.013697416602789687,0.5147125900293393,0.02476000432122051,0.2399172859664694,0.13009116079258826,0.11383636038664857,-0.02302036087875212,7.605645268139648,-6.446861515773475
300,19.0,Exhale,3,0.5324504584388388,-0.05167971223201233,0.12981594920168937,0.15625992138352324,0.17124549561205532,0.03552399328555188,-0.563197952645468,-0.03758656762948918,0.49965155396704614,-0.012179446768948542,0.532966692793238,0.02717303019241041,0.3183904856794742,0.13388458494410657,0.1934719854421538,-0.018629515757908832,6.833629693824798,-5.542361268199822
301,19.333333333333332,Exhale,3,0.534970527610015,-0.06412492329685618,0.14333103274793607,0.16076680865447954,0.18206330412601615,0.03872532215447082,-0.5437353755290713,-0.02569103192977109,0.5770196947035161,0.0017364550091284534,0.5628031989214659,0.025155757403905375,0.3947754615216906,0.14007621619682215,0.2791124333747655,-0.02267356420830878,5.351746515974885,-4.210692358099683
302,19.666666666666668,Exhale,3,0.5481272766965697,-0.07974630494514877,0.15945821409952177,0.16279027128759027,0.1996213000853789,0.042471170360713933,-0.5095920819265409,-0.02496523425032972,0.6434658693064812,0.02804488319192377,0.6067376685782142,0.014706384011105283,0.4700794812654081,0.1449940520165457,0.36904514358711027,-0.034315593502040775,3.5785427691637004,-2.878136293022631
