,time,condition,epoch,S1_D1 hbo,S1_D1 hbr,S2_D1 hbo,S2_D1 hbr,S3_D3 hbo,S3_D3 hbr,S5_D5 hbo,S5_D5 hbr,S6_D4 hbo,S6_D4 hbr,S6_D5 hbo,S6_D5 hbr,S7_D6 hbo,S7_D6 hbr,S7_D7 hbo,S7_D7 hbr
0,-10.0,noise,0,0.09195476943281612,-0.050681985511431375,0.3965119675582679,-0.03027631499106484,1.3796413027781196,0.8127784901779237,0.09443359230116048,-0.04855214548677985,0.24306993768893048,-0.13033973616907105,0.2721306571956248,-0.033952233905621285,0.38796786005336104,-0.23265917248400722,0.23776657401111762,-0.0013354373402028974
1,-9.666666666666666,noise,0,0.060572618593561715,-0.05011193408901405,0.35899951313009304,-0.06472587340095179,-0.17781298058578615,2.152027000117579,0.037996551456950904,-0.050531467749378126,0.1905853620396652,-0.14526847584690483,0.1803486501426308,-0.04158144937677527,0.32857895661705905,-0.2492335538612146,0.17823752519203517,-0.034470434138353837
2,-9.333333333333334,noise,0,0.015810723642155432,-0.04878790134888417,0.3328759007506976,-0.08894112341549137,-1.506455877099859,3.1984262398303227,-0.011114935062262011,-0.051419745188861186,0.14900692022283182,-0.16425856153284416,0.08803046183082307,-0.04760863348151448,0.264197700616276,-0.25819285782699564,0.13524090421059945,-0.09148716088614167
3,-9.0,noise,0,-0.041980508069722776,-0.04550553076736861,0.3113342847679933,-0.10103355400050382,-2.3318924610898555,3.648439759021838,-0.047357584635900556,-0.05020868946216077,0.1190807132988486,-0.17490463877103488,-0.0002249672207995225,-0.05051213519624424,0.19060744268666105,-0.25423315320880363,0.10587998797353915,-0.17048096237089078
4,-8.666666666666666,noise,0,-0.10820393558615067,-0.03925586256512605,0.2872362236937942,-0.1021424247544943,-2.4930867185759635,3.3808182088127894,-0.06748695446133257,-0.04655099153752054,0.10183168657113204,-0.16835731993082448,-0.07920646572047206,-0.04818779137016436,0.1038241497837615,-0.23075448306175175,0.08144609650808896,-0.2602924951522545
5,-8.333333333333334,noise,0,-0.17452387228916844,-0.029579009324519772,0.2561992092636116,-0.09461845443526613,-1.9993566268471883,2.461237050129032,-0.07210492453212371,-0.041022127989179466,0.09700541623302333,-0.14214506554020895,-0.1441395950600214,-0.03868787583895439,0.006668823092807201,-0.18784664351450578,0.053909071443431676,-0.3460321834387203
6,-8.0,noise,0,-0.23037588454926564,-0.016820446754137564,0.21424543619463912,-0.07918808475420994,-1.0361766804133683,1.1114149573540093,-0.0663420663795477,-0.03496415584544515,0.10053933621585692,-0.10001436517822775,-0.19200470227489833,-0.02170313538986353,-0.08934709118245784,-0.13487747941974587,0.021234446276240996,-0.4145775077659448
7,-7.666666666666667,noise,0,-0.2652386296340883,-0.002121302841434807,0.15541846814198798,-0.05403210512009876,0.1253641261474802,-0.3499496188965154,-0.05848494186013799,-0.02985960098908951,0.10408733321204237,-0.049772350034745984,-0.22243729261741227,0.00049466110596134,-0.16903087866238795,-0.08438538214234177,-0.012252278366134715,-0.45633905458987484
8,-7.333333333333333,noise,0,-0.27138757420765475,0.01290717666418773,0.07523963433732174,-0.017606378312832086,1.2363743441839237,-1.5921373707584014,-0.056495919341549176,-0.026442418409630877,0.0981596298554482,-0.0007354913468407689,-0.23763475637617315,0.023618489013711698,-0.22097091028711968,-0.04348892409145467,-0.039864261378259505,-0.463997317119882
9,-7.0,noise,0,-0.24656689326140419,0.02662885342981373,-0.022315311657806383,0.026759985413487133,2.1231407295876834,-2.3749230695061456,-0.06439981146923886,-0.02407866917522862,0.07664073170038857,0.03839228307836339,-0.2412746857508049,0.04294501068367784,-0.2415713347478156,-0.01092641734372002,-0.05750394950090546,-0.4317333971959652
10,-6.666666666666667,noise,0,-0.19508769798868036,0.03763457984914046,-0.12136366883132964,0.0688690220520325,2.707246353037354,-2.6307721664043444,-0.08074717589521006,-0.02093830348356669,0.0391657838993754,0.061600452701060356,-0.2366957763328035,0.05473281104518977,-0.23306275787867148,0.01737678638931556,-0.06640861929592042,-0.3571119358936322
11,-6.333333333333333,noise,0,-0.12585036775769648,0.04470833538628975,-0.1974227340733518,0.094755370992605,3.0049577376296215,-2.465916768756874,-0.09960075063247366,-0.015040524007361791,-0.009705819241909275,0.06784200224496788,-0.22490400116869938,0.05703463965525736,-0.19820465473559779,0.039758491366287285,-0.07138638842643232,-0.24503796510730488
12,-6.0,noise,0,-0.048354923881700096,0.046805758527702426,-0.22630797621060186,0.09327048675349442,3.0660140350886285,-2.0627052610364056,-0.11306108879580568,-0.005614578865723873,-0.06253912168397147,0.06177880214781835,-0.2037729531834448,0.05014836661278707,-0.1380723005904862,0.04765216732598704,-0.0748604284143282,-0.11110921944009483
13,-5.666666666666667,noise,0,0.029529868129010976,0.043426019229920974,-0.19538324865617468,0.062230514905131686,2.882228420818511,-1.560334979990871,-0.11413476512087542,0.006112287775057518,-0.1102216208943982,0.051158142998178995,-0.16945851409966248,0.03667239168164572,-0.05604052086602997,0.03500533625413319,-0.07169011361212708,0.01955615353482234
14,-5.333333333333333,noise,0,0.09978803947530258,0.035309590619917376,-0.11177146713755222,0.011318461106278203,2.384992471106877,-1.022019586192015,-0.09905008244509428,0.01714134726245072,-0.14287331418996513,0.04229725376405805,-0.11906010363872739,0.02082546658067011,0.03730506837947541,0.007711853753612684,-0.05025870427212212,0.11963707843038429
15,-5.0,noise,0,0.15127050214812654,0.024797304143881885,-0.001905543250468199,-0.03948157402533134,1.5727096232320779,-0.5017507943177055,-0.06838968315412945,0.02372811865309893,-0.15211181974214794,0.03752692711971482,-0.052449337779352054,0.007159098885563579,0.1256241418829196,-0.01890076818960104,0.00020722262697048653,0.16957056989521577
16,-4.666666666666667,noise,0,0.17118422531549626,0.01505403944648669,0.09929353905553663,-0.06701865298782576,0.6244203045299993,-0.10085921808144374,-0.026688937524212166,0.02284540810131892,-0.13431992447553057,0.03633290044341666,0.02751381237126433,-0.0007718706746422145,0.1937915176160993,-0.0315812700413671,0.08132554637390958,0.16475063710680551
17,-4.333333333333333,noise,0,0.15310842216030154,0.008168095588953097,0.16433740920506354,-0.05597319676120579,-0.1801236194375209,0.08419729523085587,0.019352571125104787,0.013695206252890658,-0.09266243841967106,0.03791182682386006,0.11538819388678503,-0.0014391876032245129,0.23314368428626125,-0.026444891592723927,0.1811924909154037,0.11782105700687065
18,-4.0,noise,0,0.10495219179007734,0.0036644309109998665,0.1838363134676203,-0.0068236296850436,-0.6842472378958262,0.0671963263194898,0.06329278837777443,-0.0014179927854604058,-0.03620793658138259,0.04204839098689217,0.20323860388308598,0.004148746377016586,0.24139752675135173,-0.006226935497310483,0.2756688744140613,0.05650669832431177
19,-3.6666666666666665,noise,0,0.047155237456753714,-0.000740233872616403,0.16539052432086387,0.06489810957151047,-0.9684057431199015,-0.009148024457533507,0.10073070725720724,-0.01762224311470853,0.023110155889505726,0.04815409494390174,0.280835602317813,0.012890458201374366,0.2201554963067857,0.02618418511581585,0.33571194771995616,0.015684851247951492
20,-3.3333333333333335,noise,0,0.001663901897739879,-0.006721696107645401,0.12451940072294389,0.13590644881695696,-1.2382610426640366,0.03125509976315412,0.12933588810722746,-0.02943448935539349,0.07355524620225057,0.054326241056856496,0.33700881161911306,0.021029963930810826,0.1738361080793693,0.06978376190338687,0.3394805091513082,0.02277018102999016
21,-3.0,noise,0,-0.01788031793336449,-0.01395735266940551,0.07616429712407088,0.18338673678638584,-1.6291021800288805,0.2854973430922053,0.14745003078094926,-0.032965931444441834,0.10555214157628788,0.057522552576111545,0.3622759917961194,0.025713814417482304,0.11018267733245193,0.1220032325793559,0.2826916460756153,0.08342405919172294
22,-2.6666666666666665,noise,0,-0.009096207867298053,-0.02080627628321958,0.029852832850585424,0.19210294060369562,-2.093692598932588,0.7139097733275797,0.1530323736255192,-0.027017951227346772,0.11296116293754295,0.054841031224565295,0.35162309659522106,0.025668620661886368,0.03994190973105539,0.1747985520386263,0.17903375516345515,0.17952063634020077
23,-2.3333333333333335,noise,0,0.02058408588908203,-0.025447776851714485,-0.013309237692731513,0.15987495729198833,-2.418804492374509,1.1406554498565824,0.1441936093598179,-0.01281979913638336,0.09404407875886156,0.0453284300501852,0.30592898835857585,0.02095675996295923,-0.025641296336037598,0.21505454244143446,0.05099894994758168,0.28096790639709157
24,-2.0,noise,0,0.057746422687152237,-0.026255598092481642,-0.06055817307772131,0.09796763362824149,-2.3515970606381043,1.3181389985507739,0.12077713563810219,0.006943685704777623,0.051567660635730345,0.03136740931682719,0.23127816737187024,0.01251926408729311,-0.07860191368770053,0.22996893980337288,-0.07973040697853104,0.35976786529426213
25,-1.6666666666666667,noise,0,0.08916886811335362,-0.021972329974791517,-0.12206427255446069,0.024588616468658505,-1.781067538089489,1.0589979075344156,0.08562213333775784,0.029250807770976803,-0.008422454239366032,0.01875100009353208,0.1368004745591179,0.0018603118590937912,-0.11730878485559584,0.21425481328899149,-0.19655580737418826,0.3977903627900361
26,-1.3333333333333333,noise,0,0.10813484242758693,-0.01222456560180283,-0.20431292656538327,-0.043049685945372125,-0.85924985775339,0.3665098671614687,0.04464986006162595,0.05168021725887307,-0.07835631200287929,0.0148193921398816,0.0324765449643811,-0.009383574271679032,-0.14687902497964953,0.1745506183801945,-0.28907667754694283,0.3901229577170682
27,-1.0,noise,0,0.11680794382709231,0.002101287743510204,-0.3076975554274408,-0.09180247832306324,0.058838843553830004,-0.5572746476000308,0.005649419880271352,0.07280436621798893,-0.15035143904375134,0.024970417745287736,-0.07217911986084286,-0.019953926396876206,-0.1760258934967152,0.12757276271689247,-0.3532540845655092,0.3456318603893229
28,-0.6666666666666666,noise,0,0.1231187705896758,0.019139779651324573,-0.427041535613829,-0.11250537089543414,0.6574168506650901,-1.4614033299622382,-0.023858576629726354,0.09190652792479413,-0.21700851626093226,0.04949676828960396,-0.16867216596888077,-0.02903571478746872,-0.21166657463730218,0.09225452343462139,-0.3896491504597507,0.2821243728470605
29,-0.3333333333333333,noise,0,0.13510703786548078,0.03684504030308331,-0.5518779697069454,-0.10180987908359133,0.9002353824094131,-2.2287714421062526,-0.03886943873043442,0.10845682792609951,-0.27234955404413275,0.08294176912381562,-0.2499047856824803,-0.03588802811182563,-0.25478280904165007,0.08090004037473608,-0.4003239659400212,0.21721226267035865
30,0.0,noise,0,0.15688834158542714,0.05379951116038264,-0.6681233341292955,-0.06490050349868699,1.0257521907776568,-2.9135334882132273,-0.03832902463941359,0.12193702440533363,-0.31283302611768354,0.11638791548180341,-0.31085883415694965,-0.039713318357527796,-0.300016317230478,0.09492132510877876,-0.38721071187214223,0.16114556022578688
31,0.3333333333333333,noise,0,0.18784042450069915,0.06960257871045462,-0.7631077653584969,-0.01439937803826984,1.2777128328115779,-3.599888588494292,-0.025261604577252898,0.13204094230713576,-0.33811372519951427,0.14120053705276434,-0.3496553673825361,-0.039943906975680066,-0.338247962349555,0.126008080219646,-0.35330041533688544,0.11591429676286259
32,0.6666666666666666,noise,0,0.22399805450809307,0.0847282669708036,-0.8308616899682523,0.03513016787354216,1.6520116008759145,-4.245991496450223,-0.005643657898674026,0.13880723403172102,-0.3510821189976929,0.1520486652090891,-0.36833207135408536,-0.03650165452778281,-0.3601801194650521,0.16025461627507487,-0.3051994907569766,0.07920000571621345
33,1.0,noise,0,0.2601060316130849,0.10004133655265264,-0.8736452457887981,0.07383419835195781,1.9162922602665426,-4.684615387087221,0.013592130896721595,0.14248725780130958,-0.3565906580727871,0.14775848057506208,-0.3722857159338109,-0.029941371605290854,-0.3597351915344022,0.18335434343016768,-0.25423654048727284,0.04891811337356819
34,1.3333333333333333,noise,0,0.29144151236872845,0.11627123274348448,-0.899661302756389,0.10091075671123913,1.8530462545992168,-4.766990415323364,0.026822688863849285,0.1433677409227134,-0.35900883045805726,0.13018484458135637,-0.3681282518665551,-0.021594074129269183,-0.3364932535154565,0.18587018306999661,-0.2144443082169129,0.0256981613267928
35,1.6666666666666667,noise,0,0.3151233205631779,0.13366104437068366,-0.9192240319459615,0.12398244415040224,1.483249321863486,-4.4921397310669136,0.03149556877160689,0.14175026486595338,-0.3600673384345218,0.10265537178984317,-0.3610979488407533,-0.013312575038228146,-0.2961848212122073,0.16689091071883314,-0.19803314970835964,0.012811986381389315
36,2.0,noise,0,0.3308051972301907,0.15182585056585776,-0.9413520751063942,0.1532893195070092,1.0873090586172538,-4.002290476093029,0.028624835613354334,0.13806173702209681,-0.3587604896408666,0.06959813332447325,-0.35354928670126523,-0.0065928105346657355,-0.24843601113292055,0.13380404654617048,-0.21024014320044263,0.013399092344152017
37,2.3333333333333335,noise,0,0.3406145293593213,0.16976497398060447,-0.9712780818067416,0.19436803659700738,1.0245750170156747,-3.468852177325149,0.021821925983179877,0.13295295198268325,-0.3532449667797701,0.037183394169181774,-0.34498827707594026,-0.001816133943376315,-0.2026982171838734,0.09827647130359653,-0.24626027253939378,0.02666549143341248
38,2.6666666666666665,noise,0,0.34824579490747726,0.18603639057071436,-1.0082032079451424,0.244291221869584,1.5080299745368353,-2.988936618914025,0.01553149890652186,0.1272128993350352,-0.3425748019834805,0.012894812882558379,-0.3330874295313946,0.0016245216816365947,-0.16491110445017282,0.07133156333432358,-0.2930054096771732,0.0471334127829816
39,3.0,noise,0,0.35739903836051656,0.19911553728886355,-1.044185582989138,0.2934704886243328,2.502743238398627,-2.5785833725202747,0.013430834343758517,0.12144439542986069,-0.3267691613233484,0.0029069856622946305,-0.31512798902337175,0.004668421096624441,-0.13576308835833287,0.058772177447343824,-0.33506308722641065,0.0678968376268347
40,3.3333333333333335,noise,0,0.37013224496042624,0.20783525323311286,-1.0666684183773594,0.33063071313961084,3.78019164467009,-2.238477150241454,0.01749950664250244,0.11574618194522421,-0.30590826853234987,0.008843843281915478,-0.28947303604008023,0.008180058567626408,-0.10983468765589037,0.05704287210442394,-0.36019785707697244,0.08363006219345002
41,3.6666666666666665,noise,0,0.3858134256711499,0.2117245548248066,-1.0647347124833262,0.3478126632745684,5.019227323343661,-2.003707422496685,0.027767162857179204,0.10976851913417256,-0.2793307327675999,0.025938018529551164,-0.25642075814532606,0.012804714510800357,-0.07740007414803228,0.05383213564551445,-0.361404771828659,0.09115578537297735
42,4.0,noise,0,0.4011601369787764,0.21116485909980456,-1.0350129148700504,0.34400545376986585,5.87009089936516,-1.926810263928257,0.04270352321896135,0.10318123309910417,-0.24531356980164562,0.043662519267788594,-0.21784244163969793,0.018733570149745606,-0.030540935759747603,0.03691407004863777,-0.3371580346081821,0.09048502737850703
43,4.333333333333333,noise,0,0.41149467366317655,0.20738707755164612,-0.9822523605111199,0.3256268242060515,6.032135561226227,-2.0200131067697846,0.06015423382045029,0.09614130803092832,-0.2020026038756712,0.04976215825879953,-0.1758376322477733,0.025597349513424305,0.031104110595329894,0.0038609908197944067,-0.2912359173115853,0.08640141751925474
44,4.666666666666667,noise,0,0.4128582344773105,0.20228837980424305,-0.91352566071742,0.3018684223405675,5.378823425957582,-2.2113004475534503,0.07823785843632917,0.08929665261246096,-0.14981797548396353,0.03653425440468329,-0.13144680947376663,0.03278919482919138,0.10107620250360703,-0.038064263835237186,-0.23117042663198034,0.0863563508829322
45,5.0,noise,0,0.4042094658033702,0.1980405281100054,-0.8308015395348368,0.27730589383252585,4.018357130804233,-2.345328999585242,0.0956142169487207,0.08327643101126349,-0.09327418143370717,0.004906910041989716,-0.08409865944156317,0.039824565543975926,0.1712315333882962,-0.07950868693117831,-0.16606102793228078,0.09548288738745124
46,5.333333333333333,noise,0,0.38881984483619886,0.19652895129187323,-0.7292404665690015,0.248869911435074,2.219137736616242,-2.23777148300762,0.1112502273785253,0.07806398807619687,-0.04022516864633575,-0.03665996927691321,-0.031696284316830046,0.04632787507672693,0.2342918278606971,-0.11292955877153767,-0.10551222088194465,0.11396038868173053
47,5.666666666666667,noise,0,0.3742497114708558,0.19865396137335595,-0.603805546544051,0.21097838440152258,0.3135726684706082,-1.7743538649129202,0.12413817579737177,0.07274437624213896,0.0006350898813108724,-0.07644673876145536,0.028736769334871893,0.051949923950431104,0.2826477398020115,-0.13037334871103376,-0.05868915487186076,0.13742553933216228
48,6.0,noise,0,0.37066929701282686,0.20365864412734697,-0.4574119916024719,0.1631531429992128,-1.325036984340829,-1.0041260182414171,0.1332024841168741,0.06584642161897426,0.022200507573769224,-0.1034585539866073,0.09984915424546782,0.05654210076943997,0.3084184934378154,-0.12268013840604167,-0.03197342444689884,0.15827263381719245
49,6.333333333333333,noise,0,0.38726048254824214,0.20901579633382575,-0.3014347693404367,0.1114176802376231,-2.314273058798554,-0.1480409631926095,0.13761330413221298,0.05610462371346287,0.021184824461051292,-0.1102006634772483,0.1825718345038631,0.06028558171347695,0.30731722517005267,-0.08373569407653014,-0.026404182087293563,0.16874410360648487
50,6.666666666666667,noise,0,0.4267739347336738,0.2114243865116126,-0.14851179514225987,0.06255105704886635,-2.388799690916601,0.5093854463909177,0.1377616389169823,0.04323979773769517,0.0007978630145226819,-0.09486734339964355,0.275021748405838,0.0635102104201244,0.28332037153273,-0.01532111769275149,-0.036992880997633426,0.166851889322732
51,7.0,noise,0,0.4812997581132546,0.20855341662765453,-0.006500027420305164,0.018085140952626744,-1.537815545820643,0.775052918633341,0.136325667972492,0.028355719311529075,-0.0276302417760097,-0.06236961388300831,0.3718562811322056,0.06652544927319996,0.2498373419896897,0.07162224163399562,-0.05496125884308041,0.16143778549225848
52,7.333333333333333,noise,0,0.5354898608078122,0.20003955138838986,0.12012204763651943,-0.025525760221285918,-0.017053364277060386,0.6277425382321,0.13789254798531833,0.013670589322341414,-0.04740225902819077,-0.02277604535364414,0.46439298500078074,0.06969412200793504,0.22491764678164536,0.15996565477067806,-0.07279354183610116,0.17066735124624247
53,7.666666666666667,noise,0,0.5775962009477444,0.1868433829590571,0.22488997415619802,-0.07056687678574056,1.760816867644917,0.1775667298074944,0.14661484294314853,0.0015938140752245538,-0.043984863975219564,0.012522773048849604,0.5422297342934151,0.07344156376281583,0.22174775712532063,0.23321168036217838,-0.08934410222880423,0.2129035182200849
54,8.0,noise,0,0.607198770908517,0.17014392406655213,0.2978868434823648,-0.11206726277911508,3.3552016330894863,-0.4334922811235279,0.163706460188736,-0.006377428654858174,-0.01234905162271353,0.03482630552063367,0.5962609572626308,0.07803115068262789,0.24083459006922434,0.2831327560704356,-0.11013366664525795,0.2956325666132107
55,8.333333333333334,noise,0,0.6313343223902845,0.1511489202066589,0.3304034776594405,-0.13870690247752238,4.395076338921931,-1.1019362024861152,0.1868707018038745,-0.010246760835657415,0.041296723191678,0.0408391328245204,0.6213954505382917,0.08338724735988519,0.27003783173074214,0.31302694105409545,-0.14195357686073432,0.41033968559817596
56,8.666666666666666,noise,0,0.6559510947474412,0.1312574644176737,0.3206072540914597,-0.13976114808184983,4.639456577657725,-1.7541625104928498,0.21152973672769573,-0.011292642756012937,0.10335926906249586,0.03360189585389974,0.6172736009547084,0.08909930461644693,0.29116282877049143,0.3349294999320167,-0.18756479086191888,0.5367772987572554
57,9.0,noise,0,0.6825612611144557,0.11159327526374513,0.2749011553156902,-0.11163535500307356,3.999858721653348,-2.284823819700374,0.2323137668056986,-0.011327824947981107,0.1583029072128267,0.02105400070760304,0.5870743955169068,0.09438908393668662,0.2875451115430023,0.363088522810241,-0.24577355391909791,0.6530992934710257
58,9.333333333333334,noise,0,0.7099384634620904,0.09234639282583239,0.20468680943936068,-0.05999478362131207,2.5453784140557567,-2.535646428193666,0.24412302647403206,-0.011929009467998481,0.19279975814175365,0.012500073715352956,0.5358115814566765,0.09801237386050508,0.2496379408990613,0.4066337063744621,-0.3150738129298112,0.744889821085596
59,9.666666666666666,noise,0,0.7361115894450346,0.07279771405532158,0.12187672432794659,0.001891426885464457,0.4984342816605521,-2.361923538959064,0.2430175362319944,-0.013946603636852694,0.1980294003948864,0.014975973844001036,0.46897143745704784,0.09849501604540252,0.17738624184746732,0.4654504505013996,-0.395182075435863,0.8075621666394168
60,10.0,noise,0,0.7589917697335083,0.05202158948037828,0.036623360502978416,0.056715096330472385,-1.795863608306344,-1.7300259825250253,0.22693072829735245,-0.01737690858045255,0.1705854968696647,0.03116832668890919,0.39135095699144495,0.0948624956978238,0.07836300004381298,0.5322918411567027,-0.484354865920962,0.841707270081578
61,10.333333333333334,noise,0,0.7765093240980175,0.02963104819132031,-0.042008193355646505,0.08769267998755792,-3.9258709634179767,-0.7676727730419092,0.19591522997091323,-0.021507362102990934,0.11277191070856857,0.058623899054436136,0.30614957029793455,0.08723820125791618,-0.03627995362705312,0.5978454397141847,-0.5763136922330103,0.8473652738467925
62,10.666666666666666,noise,0,0.7869649087249971,0.006101957847718925,-0.10572770017014353,0.08417546766946882,-5.488085152781846,0.2674126437226453,0.15202794536190375,-0.025200848014898296,0.03228052399935725,0.09018718454574044,0.21495523347934709,0.07668855271673725,-0.15422945412076175,0.6527117953628678,-0.6612929374961247,0.8236327594205975
63,11.0,noise,0,0.7894682046385784,-0.0173372383513236,-0.15043283892379192,0.046892579229885434,-6.1768465081631465,1.0797761058145288,0.0991610406026382,-0.027225459493217377,-0.059857216062811774,0.11692063701431801,0.11877018858230634,0.06464306244179158,-0.26280661355495516,0.6866941287681051,-0.7303483151393286,0.7723033924865165
64,11.333333333333334,noise,0,0.7841814562262283,-0.0390298765434849,-0.18031974621442773,-0.011203833595912826,-5.8553878199680955,1.425211628286609,0.042728058370974924,-0.026547580492888027,-0.1526262924358979,0.1325154030303577,0.019334826528948926,0.052549488261912615,-0.35092653014503195,0.6905394307439828,-0.7787865730246781,0.7001100216898942
65,11.666666666666666,noise,0,0.7723204681519509,-0.057199691174843005,-0.206121346205699,-0.07056469158526778,-4.567505443846683,1.154774959793208,-0.011065262929460659,-0.022551593223554437,-0.23697125126311377,0.13516908697495242,-0.07986801327743429,0.04170165089315297,-0.412129363051653,0.660726661601832,-0.8073300499250443,0.6189068251545293
66,12.0,noise,0,0.755917633664411,-0.07015059735230268,-0.23778103166930212,-0.11362182309902914,-2.5023252941633625,0.2402087544864142,-0.05634613258087666,-0.015213281504580775,-0.3055216474873878,0.125869923286562,-0.17313812088084918,0.03287610793926582,-0.4457371927711654,0.6023190282675229,-0.8217282625257926,0.5451065174431519
67,12.333333333333334,noise,0,0.7374386668096385,-0.07646823849892907,-0.27887786111109064,-0.1308022185164455,0.039013907915882974,-1.1878245318984777,-0.08875219575178374,-0.00516082543984027,-0.35268367012836255,0.10699253291204544,-0.2530480813490746,0.026066241003037425,-0.4545282791694928,0.5260373363422188,-0.8302293939139211,0.4960772890314215
68,12.666666666666666,noise,0,0.7194815796557681,-0.07534920559257832,-0.3268784690716335,-0.12164655859933371,2.6618437261968912,-2.825010492514645,-0.10629697042805876,0.006525184918400191,-0.3765675023066814,0.08342454652979249,-0.3122623444049442,0.020797343004412338,-0.44138077946276644,0.44244102257914397,-0.8390841154497852,0.4827324469916417
69,13.0,noise,0,0.7045898855390803,-0.06695788423524612,-0.3770402980606305,-0.09229529971509556,4.91133933811058,-4.261752512632665,-0.10980105469494093,0.018724658122810673,-0.3807837191494951,0.063296482610052,-0.3460744587083512,0.016720167001470547,-0.40926426880009553,0.36030359865106415,-0.8490203994538312,0.5033300776819283
70,13.333333333333334,noise,0,0.6950271267443776,-0.05255231237646842,-0.42648889584967975,-0.05164777586856682,6.349615549890996,-5.128285827287304,-0.10271486593500988,0.03062172812450348,-0.3736706438381514,0.055420912049850786,-0.3542243735042566,0.013839406800681252,-0.36409755846648073,0.28959846647385246,-0.855349502844803,0.5439311662353791
71,13.666666666666666,noise,0,0.692494612670336,-0.034256440559793,-0.47629521386244966,-0.008165245917688342,6.696153669378214,-5.248561666512571,-0.09006971558028558,0.04177056714789272,-0.3648893878892396,0.0647644219717897,-0.34106306593176283,0.012373936392190133,-0.3150186518599656,0.2412545274074882,-0.8514181629263228,0.5857060950954031
72,14.0,noise,0,0.697905817889781,-0.014611556050518584,-0.5305661082848558,0.03139815544961579,5.995627742538077,-4.726386573342185,-0.07676324526847961,0.0519711343480343,-0.36123457385563074,0.08936240074594,-0.3142504098314263,0.012662070287854578,-0.2704948483859811,0.22115375660319517,-0.8330762156114618,0.6145173621514877
73,14.333333333333334,noise,0,0.7113312587643883,0.0038888124945640045,-0.5925695934281118,0.061318200059255625,4.667368346702492,-3.903134385399873,-0.06583265416295304,0.06120359110182831,-0.36375818894828243,0.1208731046747982,-0.2825046560048679,0.015205370309178913,-0.23453506125670145,0.22546880218958598,-0.8017306162360662,0.6274510057051551
74,14.666666666666666,noise,0,0.7321111153083205,0.019146451426566163,-0.6601538735726546,0.07599667657894878,3.3253971247272482,-3.189937653582236,-0.05751365249713629,0.06969054533169677,-0.3677555718504261,0.14852309582735285,-0.253085598448892,0.02062784266244246,-0.20599252529894388,0.24215547225133816,-0.764173003201046,0.6325801771864862
75,15.0,noise,0,0.7590534999002362,0.029609571737984963,-0.7251432394840812,0.07138143169258411,2.4712575756730297,-2.8701220638938483,-0.049704638719481394,0.07789016422277822,-0.3657488437288366,0.16405165442145977,-0.23004464933266264,0.02943939481254501,-0.18040690198859693,0.25637923409317237,-0.7285049920658014,0.6412729710464735
76,15.333333333333334,noise,0,0.7906941736590735,0.03425681636185203,-0.7787361582087653,0.048903578182906686,2.272874866890348,-2.9863483504727917,-0.03954755623350256,0.08625228633656958,-0.35167993265777764,0.16495364810322224,-0.21376905683002134,0.04173295122033617,-0.15392415230179288,0.2578231868721642,-0.6986116204364231,0.6583717589997394
77,15.666666666666666,noise,0,0.8255071061221804,0.03254948770489436,-0.8181830373023026,0.018188088197912455,2.5452925764077663,-3.362901648858367,-0.025049831758714065,0.09486546399322258,-0.3238268985420882,0.1547161234944924,-0.20154851288982908,0.05697522867425044,-0.12834210054260306,0.2484891435718194,-0.672212728239823,0.6790555039440385
78,16.0,noise,0,0.8618973815614088,0.024426686032678963,-0.8475438642716451,-0.0053419969316023394,2.9072536512857674,-3.736676898757627,-0.005950542336325421,0.10329883751896919,-0.2849619932336697,0.1402292199912546,-0.18875431721829652,0.07391760797923315,-0.11270231560509889,0.24473293934734397,-0.6442319770894958,0.6944052754968397
79,16.333333333333332,noise,0,0.8980479481806147,0.010298928814081336,-0.8715256925855346,-0.007462188691343141,3.0147277356282447,-3.91696276353113,0.016251880685956576,0.11075211352991418,-0.24028354428641252,0.12788597886493477,-0.1703590644069754,0.09067053806369739,-0.11755340378628257,0.26781028322160133,-0.610979721130735,0.6977417781524086
80,16.666666666666668,noise,0,0.9318536705827065,-0.009004436625708412,-0.8896185971642084,0.017503906173232716,2.750186294697627,-3.8799584652905734,0.03887818807367914,0.11635606425617646,-0.19503309547093967,0.1206859556634319,-0.1425286305478453,0.10512621908017696,-0.14570284859785385,0.32836442873411,-0.5705038802693543,0.6849896563346064
81,17.0,noise,0,0.9610844271089207,-0.032306674298933816,-0.896531747643514,0.06327260599223486,2.2403085328049865,-3.735574574384792,0.05912543714572198,0.11947754818892088,-0.15298178998583553,0.11772511985187699,-0.10370862831917702,0.11571624440328944,-0.18777160069036183,0.41776650528839954,-0.520497668202225,0.6522733978234425
82,17.333333333333332,noise,0,0.9837398481789672,-0.05816067515780714,-0.8865929307274628,0.1140638503839756,1.673320137565778,-3.5954128511121275,0.07539351023701477,0.11998774762071039,-0.11583582288756704,0.11587724583194875,-0.05455629144092199,0.122042900613786,-0.22576249662989206,0.5121797692775949,-0.4585918725561949,0.5977657171662741
83,17.666666666666668,noise,0,0.9984461349166357,-0.08499362506046863,-0.8569753020934056,0.15152292273076087,1.0967546884286739,-3.469314148348632,0.0883093150829677,0.1184087244358701,-0.0835436015379117,0.11276835623847543,0.0032082162941691962,0.1249470358548682,-0.24077198711426445,0.5841141777791008,-0.3862927695408257,0.5281435143121468
84,18.0,noise,0,1.0047773241917806,-0.11134094616381318,-0.80815366567207,0.16190569152994053,0.40740353688723835,-3.281675725365598,0.10084075376253583,0.11581995274651871,-0.05507243350949441,0.10927393847423107,0.06819262322092387,0.1260894332861055,-0.22023228489592658,0.6142334796771105,-0.31191818955241235,0.46195901862908856
85,18.333333333333332,noise,0,1.0033911209426885,-0.13607593231444523,-0.742868158441529,0.1399476810905753,-0.4957025645582403,-2.9581712520969803,0.11729166194151532,0.11350325705657524,-0.028616603998105575,0.1091829433961411,0.14004742845781532,0.12735021384858342,-0.1622584618720272,0.5987513161025885,-0.24817102469379435,0.42392663755347987
86,18.666666666666668,noise,0,0.9958588896779177,-0.15852385800904825,-0.6656150058276274,0.08937470918864233,-1.5865186691511397,-2.48654245157751,0.141609003886389,0.11245184932232956,-0.0010659476451553868,0.11587445226065322,0.21919132956120702,0.13019225070053894,-0.07535958505885001,0.5491554828239947,-0.2064558496612879,0.4343963161732234
87,19.0,noise,0,0.9841884041947353,-0.17842016498407365,-0.5830336898114502,0.021467380299190347,-2.7044766363533768,-1.9209721594771627,0.1758957900955304,0.11298311940818233,0.03212303489081753,0.12895349747119098,0.30595394615013716,0.13518253390224902,0.02621983795708808,0.48505954342096563,-0.19215099400483737,0.5015722019489944
88,19.333333333333332,noise,0,0.9701903534903701,-0.19574955124285767,-0.5024227429832976,-0.048989770367814,-3.613331510284766,-1.3533251185474884,0.2197674616078164,0.11468790041440645,0.07573579466825153,0.14369936892932947,0.3997337830938658,0.1419397253256709,0.12868237607438315,0.4248742172488154,-0.20116871722555293,0.6172539400552365
89,19.666666666666668,noise,0,0.9549328989652115,-0.21057340519056927,-0.42693699043621014,-0.11075197517040339,-4.0794069150012735,-0.8836322367111489,0.27058296832711276,0.11674895168564471,0.1325963064545863,0.15361993990386089,0.4985548856388794,0.14943478813882016,0.22345157823566528,0.37860444251602027,-0.21810817255359605,0.7554535338130266
90,20.0,noise,0,0.938519943299798,-0.222968203717512,-0.3520160065640243,-0.16176347444409905,-3.9670536056525125,-0.6029628310931783,0.3242825498451944,0.1183947918146069,0.20159723487578682,0.15428723030195246,0.5990581801348727,0.1564013683384653,0.30832544263877143,0.3462278156936815,-0.21960524325547542,0.8781804825614083
91,-10.0,Inhale,1,0.27422011410356795,0.11215703866131271,-0.5103832261261194,0.24161724821337727,-2.232540100827719,0.7830423419959811,-0.029182395960144283,0.051395988344782366,-0.17296045973151947,0.127101699144618,-0.13664658079834013,0.016874434772649764,-0.14103513935055678,-0.041232714607855464,-0.3601428766004826,0.18874125772027114
92,-9.666666666666666,Inhale,1,0.2589626595784094,0.09733318471360111,-0.434897473579032,0.17985504341078787,-2.6986155055442254,1.2527352238323204,0.02163311075915205,0.05345703961602062,-0.1160999479451847,0.13702227011914941,-0.03782547825332661,0.024369497585799028,-0.04626593718927468,-0.08750248934065057,-0.3770823319285257,0.3269408514780613
93,-9.333333333333334,Inhale,1,0.24254970391299585,0.08493838618665839,-0.35997648970684626,0.1288435441370922,-2.5862621961954653,1.5334046294502912,0.07533269227723373,0.055102879744982805,-0.04709901952398421,0.13768956051724102,0.06267781624266668,0.03133607778544414,0.03860792721383145,-0.11987911616298934,-0.3785794026304051,0.449667800226443
94,-9.0,Inhale,1,0.2243137392001688,0.07482701412097008,-0.27657938083143024,0.08285380768032329,-1.9304770643261804,1.5662856122777207,0.12758472964392048,0.055924195686199746,0.02861053907323799,0.12952077858307914,0.1603261014622272,0.036825760830588285,0.11488085638052586,-0.14345352943625223,-0.34236015696853617,0.5206508774634382
95,-8.666666666666666,Inhale,1,0.20334560441717126,0.06673181266703922,-0.17980834358530376,0.036110390696526266,-0.9126805241590175,1.3614638573396622,0.17485361346261585,0.055980088078827706,0.10275911921124141,0.11806498159057252,0.24971326695328003,0.040827699243676734,0.1831972016294034,-0.16133747174731097,-0.25588798767544263,0.5183982106750838
96,-8.333333333333334,Inhale,1,0.17923913292825774,0.06027913006313998,-0.07522741299380858,-0.010155715619890792,0.24970745695314792,1.0052696986051175,0.2149716968139112,0.055732070743201786,0.16693163734166913,0.1113919676240526,0.3252082258656372,0.04438261257867498,0.2411388834927388,-0.17079532156248767,-0.11980438650344444,0.4414275620151822
97,-8.0,Inhale,1,0.15285072611163394,0.05502076213373619,0.023240333625892926,-0.04744960881629298,1.386738327358256,0.6114624083939987,0.2470639167250213,0.05579587466472496,0.21551953746029828,0.11547735095690687,0.38215030439537095,0.048862050320610535,0.28301567389949256,-0.1633048547662637,0.05206355021010437,0.30764064065654173
98,-7.666666666666667,Inhale,1,0.1265959198048086,0.05039439524070596,0.10208431707948064,-0.06620481773459991,2.3634797116838424,0.26678088972091946,0.27093000578360976,0.05656292222522738,0.2474052029889658,0.13049709132549428,0.4180985302424351,0.05495896883466861,0.3018654023118493,-0.12833212053323453,0.2343444780461768,0.15031647111756283
99,-7.333333333333333,Inhale,1,0.10379900071896311,0.045610567184784276,0.15528421012004057,-0.062061231723379774,3.0316330875953383,0.030015702727171776,0.2861876316452622,0.05790838129764278,0.26512652053829583,0.1507766094404773,0.43314104171871465,0.062186527499936535,0.2937337605030087,-0.06084701869744309,0.39602580747771027,0.00835902383496468
100,-7.0,Inhale,1,0.08723262601580971,0.03962720694589265,0.18317936764484433,-0.036512091446044705,3.241189042495009,-0.03952019422441438,0.2917233328022008,0.0591657996884938,0.2722332356074404,0.16788575674636846,0.42893048603764067,0.06907146627144138,0.26148602125735476,0.03212975657969362,0.5110739019643146,-0.0882224641431081
101,-6.666666666666667,Inhale,1,0.0777050616520922,0.03134365049926742,0.18608579593720131,0.006501877634825404,2.9265639284917633,0.10668538663228055,0.28591850713316486,0.059339716089044835,0.27074263291919354,0.17443394595583914,0.4072530509476379,0.07370814493697458,0.21461453736583516,0.13197477908353702,0.5674518813277112,-0.12911298441231542
102,-6.333333333333333,Inhale,1,0.07362793979453942,0.019889001431488276,0.1613767365336392,0.062264797820986595,2.182819364288057,0.4521673993929879,0.2675806215790748,0.0574309976511095,0.26004019140304513,0.1669735893523583,0.36926603026114213,0.07439537824779986,0.16555021111541302,0.21496415524971554,0.5679007995273766,-0.12323421205484857
103,-6.0,Inhale,1,0.07175320404951513,0.004814961637596267,0.10725225995676704,0.12362840935778907,1.2419612397610669,0.8879548812361726,0.23688180119976032,0.0527542034000118,0.23765165823668546,0.1470441117193162,0.3157198540308092,0.07020518029703435,0.12543790892321427,0.2596907010647083,0.5232838546520648,-0.08878244389577937
104,-5.666666666666667,Inhale,1,0.0684233874229262,-0.013761336025387285,0.028502239479493565,0.1793910245232818,0.3596814352217819,1.2515050383469268,0.1956085814685441,0.04514063392698668,0.20140897020029913,0.11970996683110599,0.24768796596893358,0.061225794816383065,0.10064769621835376,0.2534503261324807,0.44535705471127646,-0.04267260151253222
105,-5.333333333333333,Inhale,1,0.060517784861045185,-0.03493416990565789,-0.061912950493794784,0.21590394819685288,-0.2993151987475777,1.4029494756678433,0.1466615913677491,0.0349870670497189,0.1514701887662086,0.09052380026150504,0.16717168815043265,0.048383672274369995,0.08987353593655126,0.19786109056108125,0.34457739689104017,0.002873123457013554
106,-5.0,Inhale,1,0.045752513922713366,-0.056823124058240984,-0.14773731456133785,0.2222416645345683,-0.7065251993422452,1.2866952540079186,0.09314331356187121,0.02316428778765503,0.09067635220709268,0.0629092109917357,0.07698090757177567,0.033130668043685495,0.08285812186413163,0.11138691311125724,0.23242110168768285,0.036561202674337746
107,-4.666666666666667,Inhale,1,0.02266571468695883,-0.07669513218722347,-0.21612919400832759,0.19595720405186237,-0.9316651095830188,0.9401188969727345,0.037558412536756285,0.010805547444535034,0.023436787528923777,0.03714596730139444,-0.019910100271410706,0.017126080671799965,0.06339157597508674,0.024569957483049194,0.12282259383667836,0.04486778262147919
108,-4.333333333333333,Inhale,1,-0.009102810464148198,-0.09151974541866906,-0.2592837586029925,0.1448415896851905,-1.0579529130093568,0.45210772451424264,-0.018399263319518997,-0.0009736308429914909,-0.04561900527776763,0.011143779886630139,-0.12038519400738043,0.001734230781688989,0.01702431962980481,-0.03216114885241721,0.028455786088017514,0.016558759177052493
109,-4.0,Inhale,1,-0.04809552000676553,-0.09889102941310504,-0.27192165132183554,0.08342295845134523,-1.1107725766339436,-0.08307663492309836,-0.07370241145753764,-0.011349961996993372,-0.1126663229608319,-0.017406104622332996,-0.22026266379868198,-0.012468132297001703,-0.06086382039775057,-0.04170418551518431,-0.046106118214278034,-0.04777981249960184
110,-3.6666666666666665,Inhale,1,-0.09050060033332692,-0.09802555564161614,-0.2514202958930992,0.027435671053591994,-1.0450315720646972,-0.5874320972292391,-0.12791308876844462,-0.02000563483376376,-0.17509077002879733,-0.04895797077037212,-0.31351128540377393,-0.025692144329601607,-0.16122535534191332,-0.007513563988722316,-0.10729213580274204,-0.13104098444103499
111,-3.3333333333333335,Inhale,1,-0.13077054935195626,-0.09025643160071412,-0.2007699121399859,-0.011369063192401276,-0.7967758388712322,-1.0105832521385953,-0.18066520233136166,-0.0272251605982346,-0.23062371165857706,-0.08183799277767102,-0.392491939308136,-0.03854556183309952,-0.2627935447194112,0.04784133556556417,-0.16672112917395396,-0.20598770327510343
112,-3.0,Inhale,1,-0.16373864283175768,-0.07846215152149703,-0.1279931982409716,-0.02990853677151352,-0.35809984741359313,-1.340267579231556,-0.23009934689124426,-0.03379669723174449,-0.2753507331259093,-0.11379618499414772,-0.4490515087935814,-0.05167251324871391,-0.3390569934194249,0.09321965258710536,-0.23025493805119884,-0.24908125057675287
113,-2.6666666666666665,Inhale,1,-0.18698068150914116,-0.06550820475440183,-0.04114343021288155,-0.035700706611586565,0.19287463635089555,-1.6022733491208805,-0.2713917025688194,-0.04067357363798818,-0.30251991534080697,-0.14365794536524554,-0.4760533286235076,-0.06528608678855742,-0.3694522852246012,0.10508292154661054,-0.2911834495343243,-0.2519077326426953
114,-2.3333333333333335,Inhale,1,-0.2013646808914884,-0.052708728311940206,0.054806500103964276,-0.043105563808060236,0.7356699428806093,-1.8441568154980574,-0.2976551806883854,-0.048556156616447146,-0.30455852955488916,-0.1714514985855736,-0.46926579054504136,-0.07847980204525726,-0.34822135235555485,0.07865685687371586,-0.33294897655693995,-0.22360210592672514
115,-2.0,Inhale,1,-0.20933725692821925,-0.03955567021963332,0.15585699544939258,-0.06552945468839792,1.1656717867030366,-2.0943194655683213,-0.30366889700453453,-0.05775843760024258,-0.2778565638560818,-0.1970401649965913,-0.4291618233315812,-0.08905699759873899,-0.28498426326154735,0.026074170599589087,-0.3384691620180172,-0.18503088807998455
116,-1.6666666666666667,Inhale,1,-0.2127638651512529,-0.024960042529545836,0.25538952149592437,-0.10879498106677025,1.3891161213054726,-2.3043474371480768,-0.28988856442409083,-0.0684451835027924,-0.22630875146553592,-0.2189602784549247,-0.3615961261674638,-0.09445859255577321,-0.19939986333618062,-0.03336091977742311,-0.29975435407548556,-0.15878532486471403
117,-1.3333333333333333,Inhale,1,-0.21227611930732254,-0.00887537843049261,0.3435188543438083,-0.16930914121953192,1.2761601262015543,-2.3295310603844825,-0.2635088608879728,-0.08076644129648378,-0.160396237059104,-0.2347729378638102,-0.27682457575410957,-0.09314225196204542,-0.1153809090138045,-0.08103304416566207,-0.2232362335004744,-0.15904594315085782
118,-1.0,Inhale,1,-0.20840296654966067,0.007110264694287278,0.4089828481997807,-0.23680623826385058,0.6803060472167652,-1.9950874805977479,-0.2356758529137203,-0.09449367893364714,-0.09294981328000629,-0.2420579610676512,-0.1873755395310292,-0.08534464079780342,-0.0555160442030531,-0.1034470040307668,-0.1288074561562224,-0.18552222168122315
119,-0.6666666666666666,Inhale,1,-0.20298809977332824,0.02048826215361966,0.44089466688376033,-0.2988382682218258,-0.4406125952558853,-1.2107984698050291,-0.2167956975015721,-0.10845122753677534,-0.03492646275810232,-0.2389167763528258,-0.1057946126925982,-0.07288026293757827,-0.03459118128927572,-0.09644647669212546,-0.04344525328033944,-0.2244075529792506
120,-0.3333333333333333,Inhale,1,-0.19895063341598512,0.028986865402220695,0.4308956118469395,-0.3442231428972324,-1.9179129611248702,-0.04298214383587802,-0.21260162523858375,-0.12040423160173294,0.007353792244484679,-0.22476399217660686,-0.042782779361399036,-0.05834063260269902,-0.05451248676768231,-0.06807923230231673,0.007583246400239785,-0.25571418556654724
121,0.0,Inhale,1,-0.19828240666722363,0.03142419628180487,0.37783377359683795,-0.3649006173670221,-3.398333051407571,1.2937315585910873,-0.22248546880391723,-0.12774767720932845,0.03365987784001672,-0.2016926303200917,-0.005385943207342837,-0.04423662679635656,-0.10402445784656338,-0.03647240425900208,0.008714895850417584,-0.26307315141435744
122,0.3333333333333333,Inhale,1,-0.20019394686000497,0.028102546020663335,0.29230840219920395,-0.3575917587223941,-4.474416211818903,2.489540743945625,-0.24050695110324097,-0.12864665101932246,0.049091725645104764,-0.17441818266791864,0.004653579565898945,-0.03243825150157241,-0.16409681280105162,-0.022471996032560438,-0.041638933396615334,-0.241064758943934
123,0.6666666666666666,Inhale,1,-0.20092054910302562,0.020721634114290965,0.19481982599217376,-0.3254195217337162,-4.814846182498505,3.214438022823653,-0.25861934675621284,-0.12282197564525733,0.060233245409938865,-0.1477271122255258,-0.008824420007288654,-0.023976363312097227,-0.2171071067529186,-0.03970328782754213,-0.13260434503114493,-0.19608299506463908
124,1.0,Inhale,1,-0.19516838146642954,0.011842076411539604,0.10613437609311314,-0.2774476875996858,-4.250009796833128,3.220191875131831,-0.2705081526793793,-0.11147071462781931,0.07005014513468173,-0.12335777619052007,-0.0382016481366009,-0.01917761462117226,-0.25497570848548384,-0.08665495066078438,-0.24719047509823858,-0.14002366734464755
125,1.3333333333333333,Inhale,1,-0.17848490534071781,0.004147558389691381,0.03659848877222987,-0.22547646250939413,-2.823379942158863,2.439170945891068,-0.2739618132212787,-0.09650655199909368,0.07537778031674276,-0.0992530566132386,-0.07514460849732842,-0.018063568826529004,-0.28048478430705814,-0.14666006419317104,-0.36870329945558605,-0.08209103101357619
126,1.6666666666666667,Inhale,1,-0.149633322527321,-0.00020460095080279388,-0.017028671343514143,-0.18005943805306657,-0.8044853012165223,1.0237037844210821,-0.27069908925878816,-0.07969053553539404,0.06934021163526295,-0.07241224121712583,-0.11346801469384463,-0.020664838059671408,-0.30152281698515543,-0.19668880860672708,-0.48261509127240204,-0.02665173770079943
127,2.0,Inhale,1,-0.11178982297310246,-1.7873129837375616e-05,-0.06466715542760179,-0.14757807380966267,1.3584562776146354,-0.696589501203132,-0.2643346731562656,-0.06216114563926113,0.04688367262773233,-0.043213087947824844,-0.1506220473301329,-0.026832812984788276,-0.32406512650338176,-0.21906608021060514,-0.5751944332064898,0.022129217748211014
128,2.3333333333333335,Inhale,1,-0.07169883972708986,0.004777041125436745,-0.1116221261780115,-0.12939833888621283,3.147457375481401,-2.316295265265104,-0.2581372777393356,-0.04453884365852537,0.008949005130469187,-0.017226231026276368,-0.18721531913911202,-0.03567299150764989,-0.3483238587228134,-0.21029125044602054,-0.6343726138730501,0.05645985344686816
129,2.6666666666666665,Inhale,1,-0.03720200488500909,0.013331870322086218,-0.15257775898244,-0.12378903575162314,4.1215350107790805,-3.4666172065213616,-0.25383453558698515,-0.02736598292886481,-0.03770867095404337,-0.0027216563886717344,-0.2251178026780747,-0.04527582798507707,-0.3689891041791577,-0.18300459441828185,-0.6538604593486631,0.06645659753574719
130,3.0,Inhale,1,-0.014611425616119025,0.02447246197748792,-0.17594180969559683,-0.1292990697609434,4.055978958084314,-3.9001250508281053,-0.25169767363786194,-0.011431911551027386,-0.08444340334780512,-0.005881969705614059,-0.26562764436361425,-0.05327642008236857,-0.3797269377782841,-0.15794399306162582,-0.6357013027721786,0.044332874462879354
131,3.3333333333333335,Inhale,1,-0.00709049774227973,0.03736503853106353,-0.1741629498804453,-0.1465108637398044,3.0017078101718044,-3.539155599617828,-0.2514004858464081,0.0022981539053869254,-0.1252993773543058,-0.02743600170417266,-0.30870533778884157,-0.05799473764152692,-0.37965235957247495,-0.14925715675212786,-0.5887330501706829,-0.011167376819461698
132,3.6666666666666665,Inhale,1,-0.014178311317468285,0.05179096712303594,-0.15140292989532492,-0.1764966764519541,1.235094080322637,-2.49406069743145,-0.2529720540640982,0.013037125036749489,-0.15948974741991276,-0.06268913151576723,-0.3532425635983986,-0.05926211778389568,-0.3761708996252669,-0.15444586451063777,-0.5256237387310778,-0.09054391081238018
133,4.0,Inhale,1,-0.032094034576783656,0.06787925623737397,-0.12382639806480429,-0.2170182944696223,-0.8332622631826081,-1.051126209421487,-0.2572181052537446,0.020499002688674783,-0.19108946699524493,-0.1038041937222863,-0.397946480783157,-0.058269473112793846,-0.3804940970163609,-0.157877662147835,-0.4604103210772248,-0.17313433331098124
134,4.333333333333333,Inhale,1,-0.054700366094588344,0.0856615650438312,-0.11394503498619947,-0.2592644514686011,-2.735851377967207,0.3938210900045263,-0.2651523752094953,0.025041385949817595,-0.22635589009337537,-0.14244429290340185,-0.44232568218257307,-0.056619103258005815,-0.3988874123979412,-0.14492936265228723,-0.40513199868753724,-0.23481315574041092
135,4.666666666666667,Inhale,1,-0.07510615052839241,0.10488276093926947,-0.14257326148207042,-0.28870438711628466,-4.043801575955579,1.4716933254243592,-0.2766376449266807,0.027659181307615327,-0.2694528206606345,-0.17217484813120962,-0.4871038551003213,-0.05538258193717662,-0.4272563500472949,-0.11439767541134321,-0.3653221907538697,-0.2607295536050585
136,5.0,Inhale,1,-0.08748166186465518,0.1250897277944061,-0.22001739016978303,-0.2917997169790063,-4.4915090782936105,1.9803049740904122,-0.2894001053106843,0.02980789729640159,-0.3189575597395609,-0.19009328976044484,-0.53366719678705,-0.054894015710269174,-0.4534858433458483,-0.07959506121950595,-0.3376710088588076,-0.2533299730976914
137,5.333333333333333,Inhale,1,-0.08842128790228634,0.1457469357165941,-0.3386659256580621,-0.265083831686703,-4.06756695662147,1.9246461437112852,-0.2995869901387808,0.03297771127896375,-0.36809141939375956,-0.19673518547894372,-0.5829189891337994,-0.05523610658631376,-0.4643894355289411,-0.059917119094708024,-0.31276713087980756,-0.22934586539848575
138,5.666666666666667,Inhale,1,-0.07736630110145447,0.1662574791779026,-0.4723401861854765,-0.2193511167774075,-3.0133152390666584,1.4443057609595764,-0.3035323082750676,0.03811087364258633,-0.40859196459829206,-0.19434689923491819,-0.6342269837364456,-0.056636744737193136,-0.45136417881314284,-0.07103304374994428,-0.2818034773550676,-0.20843822779107443
139,6.0,Inhale,1,-0.056072472317542046,0.1859627290573181,-0.5861145959976091,-0.17427047948409852,-1.722588735189531,0.7060103261963133,-0.2992388668532935,0.045190330492116196,-0.4351054100814392,-0.18469535674325496,-0.6850014327177032,-0.05924703859895162,-0.4133493582561381,-0.11789892120096068,-0.24343868635264973,-0.2008713187644958
140,6.333333333333333,Inhale,1,-0.02762867730403346,0.20418155950000297,-0.6525516390815334,-0.14624823596164951,-0.5850879520388474,-0.1637804319332855,-0.2866253606645339,0.05330579677843801,-0.4471099030292475,-0.16774752445541022,-0.7312632104245668,-0.06267884881326942,-0.35898299818076645,-0.19010365711244234,-0.20682935722973275,-0.20081450600227452
141,6.666666666666667,Inhale,1,0.004443490219244605,0.22030354314715267,-0.6635403819487955,-0.13875275143108126,0.14892205781376947,-1.0753282112105436,-0.2666097440156547,0.061185120530191484,-0.44737125132400346,-0.1423414991533524,-0.768953745516612,-0.06594624203416422,-0.3062453531972674,-0.2618960293274705,-0.18787275108909687,-0.18938493848741234
142,7.0,Inhale,1,0.03674021523788871,0.23394617699311676,-0.6302433384077984,-0.1423811788414591,0.41047298607180865,-1.9222671674333907,-0.2399091241685777,0.06786251454565345,-0.43862467175051884,-0.10868523970672608,-0.7954397188160077,-0.06783456517336521,-0.2755279216143471,-0.30201390456495336,-0.19911298988645285,-0.14740095540412346
143,7.333333333333333,Inhale,1,0.06614612429229849,0.24508082323733835,-0.5747341272505198,-0.14260945493159502,0.2590433562105334,-2.545105918444191,-0.20674084763562742,0.07310356477598144,-0.4216134894782816,-0.07058460772144838,-0.8108713986804096,-0.06735497908125962,-0.27851393300435207,-0.29023145463972705,-0.238993925248866,-0.0711590962280248
144,7.666666666666667,Inhale,1,0.08995806100484545,0.2539728763799851,-0.52082479598867,-0.12794166447489003,-0.18215130060209409,-2.772406956675829,-0.16756459645640262,0.07736612599635398,-0.39587619596642754,-0.0351233343240586,-0.8185816292753851,-0.06422175483816993,-0.3116785643495364,-0.2277468706076776,-0.28823880482764985,0.019990065906820106
145,8.0,Inhale,1,0.10620532153545782,0.26090496255764256,-0.48685875658058186,-0.09433932007805731,-0.7367465895628016,-2.5282906321936722,-0.12392162992253383,0.08132698543174066,-0.36207525581433764,-0.009683901701362279,-0.8237873046903542,-0.05921359682050814,-0.3591544570847844,-0.13409843574904423,-0.31709014166550575,0.09096458935289803
146,8.333333333333334,Inhale,1,0.1138947126693265,0.26583140674081496,-0.481414447506288,-0.04568604699802466,-1.1717676101063446,-1.9117032581299667,-0.0786559301241115,0.08530560518102027,-0.32346155460199877,0.0012589216211374421,-0.831218372764912,-0.05388915105374665,-0.4010789790231686,-0.03657299636885829,-0.29920681650219827,0.10804335211615762
147,8.666666666666666,Inhale,1,0.11294315885642937,0.2682490608824348,-0.5033356315832277,0.008724124608486795,-1.2551099294173458,-1.163643687348392,-0.03532454640642354,0.0890229618156582,-0.28468763882816217,-0.0030220386672980062,-0.842919069333428,-0.04959833367957596,-0.420899500215792,0.03884459021836819,-0.22319347079489638,0.05396227846343246
148,9.0,Inhale,1,0.10390673412677853,0.2674464182737257,-0.5449328548617843,0.058037217247191235,-0.8720017238883127,-0.5483214543452485,0.0028963496352798625,0.09183623913383294,-0.24908090293835364,-0.02059443192033758,-0.8571908956729108,-0.046630565412093296,-0.40880049918748756,0.07214763184451126,-0.09643607460424486,-0.06561391825290269
149,9.333333333333334,Inhale,1,0.08771940216975975,0.26290401624875315,-0.5951569434922707,0.09365141376685843,-0.12436669893577683,-0.23959240600461557,0.03405915409381771,0.09316532652557387,-0.21736846804941679,-0.04729800653543335,-0.8692069072115025,-0.04421376489195751,-0.3631563212308106,0.0528529110483848,0.05737620729991785,-0.2234702206218097
150,9.666666666666666,Inhale,1,0.06565911112983318,0.2544835312672531,-0.6416267210134727,0.1123309568014176,0.6757295868885427,-0.2679453098732398,0.05763089015765095,0.09271458218866527,-0.18859510743194785,-0.07632670386944199,-0.8728862931794673,-0.04116868698123628,-0.29263501602572295,-0.014458409713935468,0.20411130132927321,-0.3782954111092213
151,10.0,Inhale,1,0.039558531849842024,0.24231752394678163,-0.6732567104430736,0.11750261215575519,1.1582159843609332,-0.5355893234108731,0.07410749656740981,0.09038564729502567,-0.1613903985138716,-0.09948924891998139,-0.8630305638481418,-0.036583461813786765,-0.2172832373071097,-0.10651581114614438,0.3077635940978568,-0.4879032263016549
152,10.333333333333334,Inhale,1,0.011981360938495183,0.22658989928338408,-0.6842227404094452,0.1175579817128537,1.1164797953612302,-0.8833598846281328,0.08433355805824805,0.08611773516281034,-0.13442030322516363,-0.11061445085720294,-0.8369010213286018,-0.030131297731905936,-0.1640171456157679,-0.18730312280690545,0.3415846401095225,-0.5256418264667545
153,10.666666666666666,Inhale,1,-0.01398626400384272,0.2074483350743679,-0.6768910587678435,0.12150642971776643,0.6336650844499242,-1.1707072473680538,0.08902475333203276,0.0798798457454296,-0.10663188967579662,-0.10802796979633703,-0.7947319452814657,-0.022033638908453432,-0.15580054173037364,-0.22386990372176616,0.2984743869437381,-0.49217034773158513
154,11.0,Inhale,1,-0.03550393096865698,0.18514029953938502,-0.6605445848864017,0.13357709580302393,0.019880608581208676,-1.3273565393766853,0.08888134456199108,0.07180624482148079,-0.07783767012924464,-0.09373798677748614,-0.7392539312487395,-0.012762632320771563,-0.20014708232611128,-0.20256662284508456,0.19440192505532866,-0.4140636118244082
155,11.333333333333334,Inhale,1,-0.05098801749713574,0.16022573019023265,-0.6456005979032743,0.14966718279310973,-0.37420496466194214,-1.3605573998393572,0.08516576864990152,0.062375918033251466,-0.04877996629260143,-0.07083971665310287,-0.6747291603275588,-0.0025957893730788723,-0.2841906896335893,-0.135425998157777,0.06111454685766075,-0.32835742945716634
156,11.666666666666666,Inhale,1,-0.060587310085400616,0.13361948422813985,-0.6377057715352207,0.15932770224185341,-0.3297543456504493,-1.3332960930109614,0.08023621909534881,0.05254194063468148,-0.019870522509859604,-0.0421381852510204,-0.6057302067345665,0.008606684980137448,-0.3798001073678193,-0.053062643062649184,-0.06876031642084528,-0.2616528580852413
157,12.0,Inhale,1,-0.06560470278801586,0.1064311874416602,-0.6362986389377946,0.15290628092936479,0.1754391314302415,-1.3435603789951887,0.07753932734676879,0.04367455914724859,0.010282338411093286,-0.010491735985061906,-0.5357803907791786,0.02110201589758566,-0.45638809858615886,0.011946379323256855,-0.17507246406979518,-0.21683090716824607
158,12.333333333333334,Inhale,1,-0.06723808444245719,0.07986912909149464,-0.6364240587748339,0.12788654697495952,1.014339628316326,-1.5092064983386755,0.08093680848737748,0.03722859181110469,0.04474981655056361,0.020921070794558193,-0.4664426311344653,0.03481811229500421,-0.49376972964569726,0.04110182569422142,-0.2533782857584163,-0.17626355383481385
159,12.666666666666666,Inhale,1,-0.06565274117434985,0.05537005153460706,-0.6298880680995679,0.08977869590260702,2.001833549449486,-1.929221213159807,0.09367284811577188,0.03423561089162859,0.08657632516341693,0.04918662687320847,-0.39745862644083974,0.04930148068007646,-0.4873512903309306,0.03540193126843576,-0.3085190498957797,-0.11747939998309027
160,13.0,Inhale,1,-0.06016100413835274,0.03464667913186358,-0.6056598013480585,0.04829537753280589,2.9503881165936727,-2.6123049133022924,0.11748077099009295,0.03485412741863081,0.13714876789490063,0.07203300639169102,-0.3276888900406441,0.06391739973301401,-0.4452457865198493,0.009930937815175728,-0.3468023538303216,-0.02761802121175803
161,13.333333333333334,Inhale,1,-0.05036665132578975,0.019206747557875544,-0.5521313107284219,0.011666298063278525,3.6806867499065445,-3.4218819925290553,0.15219972559973313,0.0381672584924362,0.195625102473379,0.08760096956354914,-0.2560344953794518,0.07791321118669742,-0.3829441551628661,-0.014267982334030507,-0.3721733934472402,0.09155050578694703
162,13.666666666666666,Inhale,1,-0.037214681889910596,0.009484739730403407,-0.4615766249047094,-0.018226430473048914,4.059543079028597,-4.110039396484863,0.19593998648204902,0.042327913361009474,0.25907247890057605,0.09481362825556562,-0.1818490026651313,0.09045443122074577,-0.3181552072443082,-0.01741007680792486,-0.3850466659184568,0.22505797054236526
163,14.0,Inhale,1,-0.022881290705272724,0.004369877052065086,-0.33448059672322455,-0.046920898656755576,4.084467085016438,-4.445916688278912,0.24556164099338368,0.04508258761146818,0.3230124281934195,0.09469015088632558,-0.10489434359571781,0.10083315028202904,-0.26428235255206356,0.01037384271414128,-0.38184048272639587,0.34794168309841045
164,14.333333333333334,Inhale,1,-0.009619278491708235,0.0016564823586066712,-0.18227000258148926,-0.08253758611215434,3.9050704317561657,-4.340289278681882,0.2971823808440177,0.044508390183755,0.3824903272785439,0.09094250880762324,-0.025242189477334066,0.10857666411870792,-0.2249644479287428,0.06250110078288686,-0.3567274347311044,0.43138778446327736
165,14.666666666666666,Inhale,1,0.0013245307023450914,-0.0009537356867441791,-0.02815529549854042,-0.12691666796910062,3.716763084115295,-3.8684305970849997,0.3466104679926888,0.039596523734300476,0.433430758129893,0.08877061370395263,0.05636399131542002,0.11324497347510118,-0.19589929188332808,0.12017874386782748,-0.3073205022072726,0.4537601689675182
166,15.0,Inhale,1,0.010003436686470421,-0.0050714426606656825,0.0961601508566685,-0.1695004456353157,3.62262232632491,-3.195722445890372,0.3898452517868936,0.030475744777142887,0.47408310759157535,0.09267013658250123,0.13761074297436934,0.11430209066338591,-0.17329245098231927,0.1658263386795752,-0.24145852968726889,0.4118717504964342
167,15.333333333333334,Inhale,1,0.01741703648704572,-0.011436709539871406,0.16040831129641578,-0.19038439641653307,3.582015836143519,-2.484065448088408,0.423750923360464,0.018373421400973047,0.5064355332463806,0.10436924124983324,0.21386565045870523,0.11139754047078651,-0.15955635014735556,0.19257625676881712,-0.1791742346189358,0.3247892942781475
168,15.666666666666666,Inhale,1,0.024736385258339436,-0.020185834927119964,0.14955941997739525,-0.17172437572635627,3.470136881279521,-1.8469386686630027,0.4465872875786845,0.005355895352945718,0.5359825057087418,0.1220293113449367,0.2783188999479651,0.10475180813510018,-0.16024974258935457,0.20200803946709225,-0.1468834768083281,0.22713467580509336
169,16.0,Inhale,1,0.032254870601676006,-0.031236389125888855,0.07378596248454607,-0.1095956877041999,3.1834230391819354,-1.3481571804671426,0.45799290466765136,-0.0062514543633406605,0.5682555381415435,0.14171521054611272,0.32319033448702805,0.09524112433638626,-0.17684884182280328,0.19592492289483146,-0.16582544856871007,0.1540964750830728
170,16.333333333333332,Inhale,1,0.0386059389632855,-0.04449335650893048,-0.03191737182770692,-0.01853819511466032,2.693615913600941,-0.9947924336976737,0.4586340354015952,-0.014642820173992321,0.6043488727941498,0.15990084167743188,0.3418118695677399,0.08418437914889554,-0.20332528638517788,0.17213432454932928,-0.24009492456720705,0.12466624485497087
171,16.666666666666668,Inhale,1,0.04089564713221776,-0.059732765345544066,-0.11964142916473462,0.07313313799809766,2.0222576420880367,-0.7298110060105785,0.4499093600051149,-0.019120051605142838,0.6396841126400911,0.17431311392208587,0.3307987191330725,0.07297097653521285,-0.22899468222007316,0.12715337470833335,-0.3520184687864346,0.1337720939129315
172,17.0,Inhale,1,0.03595805110918936,-0.07624307653292975,-0.14754705267146379,0.1343441011451077,1.1970567002726817,-0.470766327753597,0.43359936079892963,-0.020177703789339935,0.6668980039762158,0.182900388502153,0.29113960452194465,0.06260054685440693,-0.24451383792745,0.06175688137546041,-0.4699310099143281,0.15980467382168667
173,17.333333333333332,Inhale,1,0.02234305093964098,-0.09238752874611726,-0.09684952005910734,0.14381674493564955,0.24711874290417574,-0.17618834691900478,0.4113306509384905,-0.019119791803866686,0.6796844291549923,0.1832896578970649,0.22788823168833053,0.053299928829593356,-0.24651282987947964,-0.015522765361630043,-0.5632851112486468,0.1811746526628536
174,17.666666666666668,Inhale,1,0.0018297938098175892,-0.10535069076553259,0.022315629935577435,0.09827770234363296,-0.7654054546844115,0.13203662335448216,0.38397282883486045,-0.017525612790087654,0.6742660435598338,0.17389583537353542,0.14870344789330922,0.04450682096614289,-0.23786912533068463,-0.08998874109079268,-0.6139495976682884,0.18867345329673219
175,18.0,Inhale,1,-0.02091847016089643,-0.11159277181316915,0.1784909532555321,0.011888797182295413,-1.721320571436997,0.41396446573497614,0.3513229144673995,-0.016776286846993654,0.6487337687171444,0.15531432265481568,0.061446638311722306,0.03533624557713963,-0.2239683523815775,-0.1476020687925078,-0.618375445733708,0.1863519457984901
176,18.333333333333332,Inhale,1,-0.04059297228080171,-0.10820426562882104,0.33446401808372567,-0.0918614658139061,-2.4621891284646806,0.6594147495538925,0.31280004023328745,-0.01762824151469232,0.603191595354166,0.13020443414342628,-0.02805235637643289,0.025187550549422903,-0.20840924611593192,-0.18251453753405314,-0.5835649770346234,0.1839326736375572
177,18.666666666666668,Inhale,1,-0.05382752601074834,-0.0943007261639844,0.46199501669422155,-0.18991101360871562,-2.8340719278880004,0.8632778051274322,0.2690581504866902,-0.019927471477415273,0.5412306399262093,0.10182218380658449,-0.11671476958068511,0.013982757950162378,-0.19147590209879256,-0.1993090040795113,-0.5212196227134585,0.18829958816868922
178,19.0,Inhale,1,-0.06040130542474293,-0.07132187654839518,0.549185594643013,-0.2664149779536615,-2.7325538052295846,0.9635561780011569,0.22302671671853025,-0.022694143342700826,0.4698702811670819,0.07333063312678945,-0.20351707704098998,0.001996582051313521,-0.1714034714801517,-0.20868903859618054,-0.44241526918062835,0.19918393560919903
179,19.333333333333332,Inhale,1,-0.06251707337266679,-0.04218314104032614,0.5996280888474568,-0.3154959559960009,-2.1442965395082947,0.8438120110889094,0.17938714035494996,-0.02460175553188139,0.39683234616206997,0.04888838219890477,-0.28822082876627664,-0.01034094670315907,-0.14585903835098984,-0.22108787162700252,-0.35471423253361467,0.21042378824943772
180,19.666666666666668,Inhale,1,-0.06307456796511135,-0.010199556453341778,0.6253882176982805,-0.33951973879715563,-1.1633707705749925,0.4140676102517618,0.14294977966965566,-0.024593638282257836,0.32767492959816524,0.03435573853099855,-0.3701746418266824,-0.02250200988786366,-0.11273605134010918,-0.24266781779663774,-0.2629988147901189,0.21495193178266495
181,20.0,Inhale,1,-0.06421466060680647,0.02150338580558323,0.6368058607958009,-0.3433632365663416,0.03152509950439248,-0.3010270349831651,0.11691494837133663,-0.02228792533330182,0.2654933492429689,0.03519259421751549,-0.44778330460132043,-0.03387979025592192,-0.0721727389817679,-0.27356022881863584,-0.17270664824839896,0.20933574479920156
182,-10.0,Exhale,2,0.14426779942953596,-0.07953837361203714,-0.21428877506617214,0.3507238459746003,-0.22081811026694276,1.3615820011742676,0.2679313165416655,0.054778321674715254,0.13877159168413972,0.15548825595812873,0.2392941333237917,0.06434481484117562,0.3159475538983546,0.09707569981123466,0.4069575317980332,0.1812920449104688
183,-9.666666666666666,Exhale,2,0.11249927427842894,-0.09436298684348272,-0.25744333966083705,0.29960823160792843,-0.3471059136932806,0.8735708287157755,0.21197364068539024,0.04299914338718873,0.0697157988774483,0.12948606854336445,0.138819039587822,0.048952964951064645,0.26958029755307267,0.04034459347576827,0.3125907240493723,0.15298302146604206
184,-9.333333333333334,Exhale,2,0.0735065647358116,-0.10173427083791872,-0.27008123237968007,0.23818960037408318,-0.39992557731786743,0.3383864692784346,0.1566704925473716,0.03262281223318684,0.002668481194384035,0.1009361840344013,0.038941569796520435,0.03475060187237395,0.19169215752551733,0.030801556813001167,0.2380288197470768,0.08864444978938775
185,-9.0,Exhale,2,0.0311014844092502,-0.10086879706642982,-0.24957987695094383,0.18220231297632994,-0.3341845727486209,-0.16596899302770612,0.10245981523646462,0.023967139396416454,-0.059755965873581396,0.06938431788636218,-0.054307051808571496,0.02152658983977405,0.09133062258135458,0.06499217833946316,0.17684280215861278,0.005383277847954613
186,-8.666666666666666,Exhale,2,-0.009168464609379121,-0.09309967302552778,-0.19892949319783046,0.14339757873033668,-0.08592883955515598,-0.5891201479370625,0.049707701673547586,0.01674761363194562,-0.11528890750336111,0.036504295879063266,-0.13328770571293352,0.008673172336276134,-0.010237566796143316,0.12034707789374964,0.11741380878740086,-0.06956344098611385
187,-8.333333333333334,Exhale,2,-0.042136558089180536,-0.0813053929463107,-0.1261527792988162,0.12485810515122442,0.35274715190248296,-0.918804475030023,0.00027355711366496656,0.010176076998435727,-0.16001592897069336,0.004546103662586569,-0.18984727519837896,-0.0044537790793382544,-0.08650101549615705,0.16572539491529084,0.05387999991015598,-0.1126569882877633
188,-8.0,Exhale,2,-0.06537859676656403,-0.0683514461792155,-0.03930301127072611,0.11906593531115138,0.9037216356669717,-1.1808102449193474,-0.041018798563910136,0.00329920059219204,-0.18718511118559106,-0.025315656708511252,-0.21684909502830513,-0.018067352619181763,-0.11689630730133332,0.17758866387479602,-0.007048511572969467,-0.11548347035370565
189,-7.666666666666667,Exhale,2,-0.07976259614891126,-0.05555196973675388,0.056646919046119716,0.1116610781146777,1.4465169421966855,-1.4226937112965246,-0.06728227668347618,-0.004583382386266928,-0.18922372539967322,-0.0531092099288393,-0.21006155694983888,-0.03126106787588161,-0.09566537443228697,0.15116259920190134,-0.04881403859558516,-0.08717784363773556
190,-7.333333333333333,Exhale,2,-0.08773517218564211,-0.04239891164444699,0.15769741439154802,0.08923718723434002,1.8765187860191126,-1.6728563613667884,-0.07329599299962526,-0.013785663370062365,-0.16252175970086588,-0.07869787633985699,-0.16995758973637878,-0.04183826342936333,-0.0324282853382795,0.09857991292777456,-0.054334224056662356,-0.04860662579099498
191,-7.0,Exhale,2,-0.09116178040867577,-0.027803283954359506,0.25722994043807973,0.04597166085596768,2.099963120621549,-1.8828843329465437,-0.0595156604191816,-0.024472409272612176,-0.11097394731031997,-0.10061798979819041,-0.10239189257226138,-0.04723985838639756,0.053156114587087244,0.03914482255076237,-0.015619416114130731,-0.022361062575724455
192,-6.666666666666667,Exhale,2,-0.09067403456474543,-0.011718619855306284,0.3453592732859637,-0.014542499296793975,1.9870071255176305,-1.9080679561829497,-0.03313595688306355,-0.036793667066303555,-0.04506143290388806,-0.11643064920707591,-0.017620342158907117,-0.04592351779266977,0.13717506890946338,-0.00852730183747659,0.06089870446088043,-0.022621680861868245
193,-6.333333333333333,Exhale,2,-0.08680088180708354,0.004267023269473605,0.4108232671419361,-0.08203959634111263,1.3911530465328414,-1.5736243763962148,-0.005302948908811085,-0.05052090470346693,0.022384990875209645,-0.12371567241091688,0.07182869406417323,-0.03812590662842777,0.1970399337202148,-0.03094126170258133,0.15532748180513242,-0.04909795939223357
194,-6.0,Exhale,2,-0.08138601503075112,0.017645020728805985,0.4427350858259157,-0.14407162629908787,0.27023440406019084,-0.7893353656034963,0.01357720650333715,-0.06447845330659512,0.08040834139711361,-0.12057448769609151,0.15340962090260424,-0.025661528768202612,0.21796479663399215,-0.023940734363939977,0.24068968468101537,-0.08798329069026102
195,-5.666666666666667,Exhale,2,-0.07734854867340799,0.02614362397740702,0.4327360307890949,-0.18945650097449443,-1.207065961808794,0.3784809603656549,0.017771278766325487,-0.07643145737155273,0.12268859639970062,-0.10642170351987257,0.21642145423380338,-0.011121898433323361,0.19804349115558556,0.004426510025868744,0.2917181843615946,-0.11928992327755765
196,-5.333333333333333,Exhale,2,-0.0766803219246465,0.0285809548569912,0.37967419253899337,-0.2101339754442842,-2.6874860520914945,1.7151946627926202,0.007887435200992011,-0.08377490297914825,0.14899468199523266,-0.0833503416633574,0.2538182903878596,0.0029821073730191,0.14853152007670453,0.0360333380691834,0.29284983381177243,-0.12664888912536784
197,-5.0,Exhale,2,-0.07859186211742783,0.02525930459584966,0.2941488211413595,-0.20282511679965615,-3.7635692125028264,2.911003848147158,-0.010134047098331725,-0.08467387678914226,0.16442652980032071,-0.056075894011184346,0.26385781316110135,0.014780482667803239,0.08845916512221624,0.050033746295625035,0.2424960045647395,-0.10464049665494443
198,-4.666666666666667,Exhale,2,-0.07931846436044851,0.01787839268947729,0.1966602449343292,-0.17065287981097826,-4.103999183182429,3.635901127025186,-0.028246442751303575,-0.07884920141507713,0.17556804956515482,-0.029384823568791504,0.2503798135879138,0.02324237085727843,0.03544887117034926,0.03280245450064335,0.1515305929302099,-0.059658732775649495
199,-4.333333333333333,Exhale,2,-0.07356629672385241,0.008998834986725933,0.10797479503526858,-0.12268104567694785,-3.539162797517051,3.6416549793333637,-0.04013524867447003,-0.0674979403976391,0.18538494928989768,-0.005015487533785779,0.22100258545860152,0.028041119548203396,-0.0024197305622159727,-0.014149208332598912,0.036944462863116236,-0.0035994050556579704
200,-4.0,Exhale,2,-0.05688282059814068,0.0013043169648777075,0.03843890771438531,-0.07070982058665619,-2.112532942842787,2.860634050092601,-0.04358890921636951,-0.052533777768913464,0.1907125844719587,0.019089232043495684,0.18405962509787402,0.02915516534284665,-0.027928806383790267,-0.07415432186498555,-0.08456836149423123,0.05433323127541339
201,-3.6666666666666665,Exhale,2,-0.02803123778474387,-0.003047842375616467,-0.015188252401358704,-0.025292796130328633,-0.09363830190044617,1.445166888622615,-0.04032618525387888,-0.03571776130521383,0.1846750157904789,0.045930047439608455,0.1457362189013578,0.026553896109704246,-0.04896683906188756,-0.12418306627854159,-0.19848015331104726,0.10977252458819016
202,-3.3333333333333335,Exhale,2,0.009812261769474676,-0.0028611145546510487,-0.06282673648544636,0.0071885681130752655,2.069303276930712,-0.2751263970015991,-0.033961769151356326,-0.018188371409080913,0.16221847678294826,0.07512920070890945,0.1085821862650695,0.020385921184587378,-0.0715091485801139,-0.14656033788241968,-0.2910594952451349,0.1585534800372006
203,-3.0,Exhale,2,0.04990324501548727,0.001933799700623072,-0.10978170723585605,0.0253683030365251,3.8583043747974775,-1.8948321610635706,-0.027764373734426334,-0.0005660694283451492,0.12428380928568512,0.10111605763045792,0.0719889144560904,0.011545742661725773,-0.09576788079954549,-0.13778550811783508,-0.35023767591169525,0.19288411573585773
204,-2.6666666666666665,Exhale,2,0.08440007985756803,0.010488628897272546,-0.15073734004028458,0.03097760617111479,4.832382010095156,-3.0451541023198283,-0.023461631582075867,0.01660679130131541,0.07762613320117256,0.11562063226806256,0.03408643091712771,0.0019429061842985828,-0.11643312625588978,-0.11049885209009637,-0.36972552138730835,0.20288085982473678
205,-2.3333333333333335,Exhale,2,0.10699065912645811,0.021629220552674248,-0.17410139075344142,0.025467572161794527,4.76682595740039,-3.4786619466265725,-0.021324769632952698,0.032540862679152835,0.030891400807410815,0.11246031895112023,-0.006423410768411861,-0.006057685912992914,-0.12717095985501622,-0.08543825073344036,-0.35156636481082376,0.1807571367518689
206,-2.0,Exhale,2,0.1145115870002974,0.034521797106249856,-0.1723225309382899,0.008255778182933528,3.7125548094878806,-3.117692495416295,-0.021027581841498867,0.046270928135567144,-0.009964573199089864,0.09090628695256163,-0.04950110419363911,-0.010776003472151264,-0.1270963816492071,-0.07675141442394239,-0.3045981122093281,0.12525688546952787
207,-1.6666666666666667,Exhale,2,0.10742377342510884,0.04894772569822227,-0.14956251095316947,-0.021730034529216166,1.9459410796387127,-2.0725975932299177,-0.022599150059188906,0.0570098992669297,-0.04415494326469681,0.055653157140967066,-0.0940383300031962,-0.012043383614520025,-0.12361492170199903,-0.0819401221824523,-0.24148880076972304,0.0458803514766094
208,-1.3333333333333333,Exhale,2,0.08950805016579347,0.0650360148125603,-0.12198597912264886,-0.06225165254688436,-0.12241526386653194,-0.6296631052199543,-0.0268452012488354,0.06447177691885499,-0.07575466284002902,0.014538094934447982,-0.13874224718795453,-0.011050738943418187,-0.12793811909309302,-0.08537191981964952,-0.17627538311586993,-0.03671007102199167
209,-1.0,Exhale,2,0.06690171864798879,0.08281832361901753,-0.11210461604404402,-0.1044978095458632,-2.025004378651131,0.8152841942060591,-0.03477947120458602,0.06901416017999781,-0.11102108593815944,-0.02410200424666756,-0.18312144858737062,-0.009400369088630156,-0.1463314344746733,-0.07242362032410177,-0.12099706072618245,-0.09838889345142135
210,-0.6666666666666666,Exhale,2,0.046495934214184714,0.1020395195144558,-0.14073284253991497,-0.13393774519354673,-3.3329545766395037,1.893156429625892,-0.04626474092177141,0.07163195553779556,-0.15411801650541856,-0.053832559474475315,-0.2278996215051189,-0.008163847767800967,-0.17470037212402703,-0.041891933083157744,-0.08118725279251487,-0.1243052913160689
211,-0.3333333333333333,Exhale,2,0.03412042287792195,0.12224648636959244,-0.21817697122762758,-0.13703307505626838,-3.7806620789775343,2.401768078291945,-0.059027201305775004,0.07378067152658181,-0.20362275558434498,-0.07175100110371055,-0.27446296319184754,-0.007675281540893519,-0.20092986542258043,-0.007089318891320476,-0.053536070897452756,-0.11690571080870181
212,0.0,Exhale,2,0.033180796840290794,0.14290369429178043,-0.3368255067159067,-0.11031718976396508,-3.356719957305394,2.3461092479128176,-0.06921408613387156,0.07695048550914396,-0.25275661523854365,-0.07839289682220943,-0.32371475553859685,-0.008017372416938106,-0.21183345760567318,0.012588623233477455,-0.028632192918452724,-0.09292160310949618
213,0.3333333333333333,Exhale,2,0.04423578364112266,0.16341423775308891,-0.4704997672433211,-0.06458447485466957,-2.3024682397505822,1.8657688651611093,-0.07315940427015837,0.08208364787276655,-0.2932571604430761,-0.07600461057818388,-0.3750227501412431,-0.009418010567817481,-0.19880820088987497,0.0014726985782412018,0.0023314606062872284,-0.07201396550208486
214,0.6666666666666666,Exhale,2,0.06552961242503509,0.1831194876325044,-0.5842741770554536,-0.019503837561360583,-1.0117417358734548,1.1274734303978462,-0.0688659628483842,0.08916310472229641,-0.3197706059262233,-0.06635306808652068,-0.42579719912250075,-0.012028304429575967,-0.16079338033287027,-0.0453931788727752,0.04069625160870508,-0.06444705647550622
215,1.0,Exhale,2,0.09397340743854367,0.20133831807518932,-0.650711220139378,0.008518405961088433,0.12575904727722872,0.2576826722682474,-0.05625245665962469,0.09727857100861823,-0.3317750988740316,-0.04940523579867593,-0.4720589768293643,-0.015460114643893758,-0.10642702025749856,-0.11759791478425687,0.07730558073162207,-0.06439024371328494
216,1.3333333333333333,Exhale,2,0.12604557496182173,0.21746030172233896,-0.6616999630066401,0.016013890491656673,0.8597690571298456,-0.6538651070090108,-0.03623684001074547,0.1051578947603717,-0.33203644716878755,-0.023999210496618115,-0.5097495119214095,-0.018727507864788565,-0.053689375273999564,-0.18939028699928503,0.09626218687225793,-0.052960676198422756
217,1.6666666666666667,Exhale,2,0.15834229998046584,0.23110293556830305,-0.628402919465643,0.012385463081278846,1.1213199853878848,-1.5008040632318578,-0.009536220163668434,0.11183528877583367,-0.3232898675953029,0.009657048950008205,-0.5362354852208053,-0.020615831003989546,-0.022971943691079168,-0.22950816223676787,0.08502194807490199,-0.01097669311513387
218,2.0,Exhale,2,0.1877482090348756,0.24223758181252467,-0.5728937083083643,0.012157186991142932,0.9698903555266095,-2.123642814242658,0.02363205636928183,0.11707633900616166,-0.3062786853230657,0.04775768093528591,-0.5516671650852071,-0.02013624491188397,-0.025957955081084196,-0.21772571231154156,0.04514101271248881,0.06526516606096479
219,2.3333333333333335,Exhale,2,0.21156014574742257,0.2511296349551715,-0.5189843770465147,0.02682497744784792,0.528695698713982,-2.350943852474296,0.06280830754850661,0.12133890022653418,-0.2805413918112116,0.0832189543326757,-0.5593773956801827,-0.017003020668794274,-0.059122586426268525,-0.15524112827949213,-0.004103866866295018,0.1564143281958097
220,2.6666666666666665,Exhale,2,0.22780740627803495,0.2580617211328289,-0.48501833763842633,0.06042732184468062,-0.025899590246725487,-2.1068275279921393,0.10645127408237541,0.12529975966192086,-0.24674045165912176,0.10865838695537201,-0.5645830710951518,-0.011994862651132485,-0.10659847916151652,-0.06159269342085876,-0.03295520370415097,0.2273888516418876
221,3.0,Exhale,2,0.23549679741190363,0.26298816531600133,-0.47957402856413245,0.10908059492471328,-0.4609206107902683,-1.4902401539284336,0.15171697388079775,0.12927837941120052,-0.20812675044678286,0.11960121027787174,-0.5720141391697096,-0.006670416884370993,-0.1485230010999007,0.03593274595932718,-0.01507187854084344,0.2444676144051472
222,3.3333333333333335,Exhale,2,0.2345452435990065,0.2654058194576211,-0.5014952126410722,0.1634907665312247,-0.5442629301012696,-0.7421805831468592,0.1950483575984857,0.13299573604583845,-0.1693528346729462,0.1153202499894363,-0.5837148357382256,-0.0023795995102003035,-0.1683435222925241,0.11135033254655366,0.06094146716645846,0.19038654075242206
223,3.6666666666666665,Exhale,2,0.22550881886935567,0.26460317684891205,-0.543092435919629,0.21280385916992917,-0.16115472457223654,-0.12685835014371566,0.2332692536401891,0.13580901336401316,-0.1337460987831377,0.09774785673639672,-0.5979866620777085,0.0005881687572823609,-0.15624452126421967,0.14465337417269672,0.18769886335710997,0.0708103440360869
224,4.0,Exhale,2,0.20932148691233687,0.2600607748239395,-0.5933165245501153,0.2484180556895964,0.5864803003802993,0.18187069819691734,0.264432058098727,0.13713810075575408,-0.10203366389420088,0.07104428212130094,-0.6100026736163,0.003004969277418146,-0.11060034330754266,0.12535865337657026,0.3415111452612727,-0.08704595833282015
225,4.333333333333333,Exhale,2,0.1872611958724103,0.25164028984243947,-0.6397863020713174,0.26709759872415556,1.3865765862046189,0.1535177943282931,0.28800379416256017,0.1366873564188455,-0.07326030327673193,0.04201558478729231,-0.6136820595842649,0.0060500471881393715,-0.040079038102455083,0.058047332614250005,0.488246239290628,-0.24187114882023172
226,4.666666666666667,Exhale,2,0.16116061659241915,0.23947428252196795,-0.6714162915009182,0.2722692540784932,1.8690629836770092,-0.11412621920934016,0.30448040057231907,0.13435842152520588,-0.04605559435865566,0.01885303973675291,-0.6038263302529393,0.010635272355588888,0.03527274061615818,-0.034010068817958906,0.5918985320592116,-0.3514789640126653
227,5.0,Exhale,2,0.1335834456810723,0.2237466578585704,-0.6823823214672898,0.2723246236355916,1.8273267946773064,-0.4618967804265999,0.3147064620631573,0.13009050939299052,-0.01908549906994769,0.007727837799531358,-0.5776967877333994,0.017087436437469725,0.08853883230749997,-0.11479738047871994,0.6257195780708773,-0.389217564177765
228,5.333333333333333,Exhale,2,0.10761582073873441,0.20460509364955426,-0.6750506398256881,0.27627307164050435,1.3445120837660003,-0.7492441431665209,0.31939765733694203,0.12385261997560981,0.008702914479419326,0.010314318860397258,-0.5355277116862632,0.025185095260922222,0.09675543619289423,-0.15136416139358067,0.5826093249050929,-0.3557460854425956
229,5.666666666666667,Exhale,2,0.08609815377392015,0.18229705811457136,-0.6587041659442463,0.2883437377257619,0.7307276078972847,-0.9058934351751524,0.3192542485669003,0.11577901905166102,0.03749713402597129,0.02460430187924816,-0.4800496976535371,0.03445610184860409,0.052408895597156606,-0.13006088051689907,0.4785368630166835,-0.27763934953541863
230,6.0,Exhale,2,0.07061406724544138,0.15738248876541897,-0.6437601789611189,0.3044338247158476,0.336642034654134,-0.9390942956378244,0.3155386726548108,0.10634869226343169,0.06655483786261451,0.04750257200363141,-0.4155249267323564,0.04462294479629678,-0.031634711710321436,-0.06292025582959156,0.3452494848190156,-0.19193316716817674
231,6.333333333333333,Exhale,2,0.061014774657176515,0.1307762428033262,-0.6358653525930653,0.3140943441645913,0.38109265366562683,-0.9118329888094285,0.31060912310025807,0.0965147148648617,0.09546428164535634,0.07620410340571389,-0.346525973139364,0.055825419149513104,-0.12724412944455138,0.019443099265536293,0.21537462154050954,-0.12522859579625167
232,6.666666666666667,Exhale,2,0.05599738195456126,0.10358794601684654,-0.6344582199956392,0.30767292285210274,0.8862861307463177,-0.9220972747936559,0.307912231351678,0.0876473333774288,0.12561714256630924,0.10785055267167239,-0.2765761571839762,0.06832075006696131,-0.203832120662891,0.08445212165144234,0.10906247389155962,-0.0804066448792565
233,7.0,Exhale,2,0.054364000300119945,0.07702588766668096,-0.6345836398326785,0.28265318889769747,1.7251866276324022,-1.0877433941371426,0.3113097124922867,0.0812013660412849,0.16008462070577956,0.13926335945129248,-0.2072383975392629,0.08203684646437986,-0.2412137517224294,0.1136075680224069,0.030756652202938523,-0.039839291545824274
234,7.333333333333333,Exhale,2,0.05594934356822727,0.05252681010979338,-0.6280476491574125,0.24454533782534496,2.7126805487655616,-1.5077581089582741,0.3240457521206811,0.0782083851218088,0.20191112931863286,0.16752891552994278,-0.1382543928456373,0.09652021484945211,-0.23479531240766272,0.10790767359662123,-0.024384111934424878,0.01894486230589931
235,7.666666666666667,Exhale,2,0.06144108060422439,0.03180343770704991,-0.6038193824059032,0.20306201945554384,3.6612351159097494,-2.1908418091007595,0.34785367499500214,0.07882690164881102,0.25248357205011657,0.19037529504842532,-0.0684846564454417,0.11113613390238966,-0.19268980859658147,0.0824366801433612,-0.06266741586896675,0.10880624107723155
236,8.0,Exhale,2,0.07123543341678738,0.01636350613306187,-0.5502908917862664,0.16643293998601646,4.391533749222621,-3.0004188883275225,0.3825726296046424,0.08214003272261641,0.3109599066285949,0.20594325822028342,0.0031697382157506973,0.12513194535607308,-0.13038817723959825,0.05823775999415497,-0.08803845548588539,0.22797476807593658
237,8.333333333333334,Exhale,2,0.08438740285266653,0.006641498305589734,-0.459736205962554,0.13654021144968903,4.770390078344673,-3.6885762922833307,0.42631289048695825,0.0863006875911897,0.37440728305579196,0.2131559169122999,0.07735523093007114,0.13767316539012145,-0.0655992293210403,0.055095665520260614,-0.100911727957102,0.36148223283135483
238,8.666666666666666,Exhale,2,0.09872079403730441,0.001526635627251413,-0.33264017778106914,0.10784574326598237,4.795314084332515,-4.024453584077379,0.4759345449982929,0.0890553618416484,0.4383472323486354,0.21303243954305986,0.1543098899994846,0.14805188445140469,-0.011726374628795652,0.08287958504232676,-0.09770554476504104,0.4843659453874
239,9.0,Exhale,2,0.11198280625086889,-0.001186759066207002,-0.18042958363933384,0.0722290558105836,4.615917431072242,-3.918826174480349,0.527555284848927,0.08848116441393522,0.4978251314337598,0.20928479746435752,0.23396204411786836,0.15579539828808356,0.02759152999452511,0.13500684311107233,-0.07259249676974963,0.5678120467522669
240,9.333333333333334,Exhale,2,0.12292661544492221,-0.0037969771115578524,-0.02631487655638498,0.027849973953637322,4.427610083431371,-3.4469674928834673,0.576983371997598,0.0835692979644807,0.5487655622851089,0.2071129023606869,0.3155682249106224,0.16046370764447682,0.05665668603993981,0.19268448619601294,-0.02318556424591774,0.5901844312565078
241,9.666666666666666,Exhale,2,0.13160552142904755,-0.007914684085479356,0.09800056979882393,-0.014733803712577747,4.333469325640987,-2.7742593416888393,0.620218155791803,0.0744485190073231,0.5894179117467913,0.2110124252392355,0.39681497656957176,0.16152082483276156,0.0792635269409486,0.23833208100776068,0.042676408274085934,0.5482960127854238
242,10.0,Exhale,2,0.13901912122962284,-0.01427995096468508,0.1622487302385712,-0.03561775449379512,4.292862835459596,-2.062602343886875,0.6541238273653733,0.06234619563115326,0.6217703374015965,0.22271152990656753,0.47306988405390765,0.15861627464016215,0.09299962777591235,0.2650819990970026,0.104960703342419,0.46121355656713714
243,10.333333333333334,Exhale,2,0.14633847000091657,-0.023029076351933638,0.1513998389195507,-0.016957733803618324,4.180983880595598,-1.4254755644614696,0.6769601915835938,0.04932866958312593,0.6513173098639577,0.240371600001671,0.5375231335431676,0.15197054230447585,0.09230623533391334,0.27451378179527774,0.13725146115302672,0.3635589380940829
244,10.666666666666666,Exhale,2,0.15385695534425314,-0.034079630550702525,0.0756263814267015,0.04517095421853804,3.8942700384980116,-0.9266940762656098,0.6883658086725606,0.03772131986683956,0.6835903422967595,0.26005749920284704,0.5823945680822306,0.14245985850576193,0.07570713610046462,0.2684306652230169,0.11830948939264475,0.2905207373720624
245,11.0,Exhale,2,0.16020802370586262,-0.04733659793374415,-0.030076952885551476,0.1362284468080776,3.404462912917017,-0.5733293294961409,0.6890069394065044,0.029329954056187893,0.7196836769493657,0.27824313033416614,0.6010161031629424,0.13140311331827118,0.04923069153808999,0.24464006687751472,0.04404001339414777,0.2610905071439604
246,11.333333333333334,Exhale,2,0.16249773187479488,-0.06257600677035774,-0.11780101022257919,0.2278997799208356,2.733104641404113,-0.3083479018090456,0.6802822640100241,0.02485272262503738,0.7550189167953071,0.29265540257882017,0.5900029527282749,0.1201897107045885,0.023561295703194714,0.1996591170365188,-0.06788353082507982,0.27019635620192106
247,11.666666666666666,Exhale,2,0.15756013585176648,-0.07908631795774342,-0.14570663372930837,0.2891107430678457,1.9079036995887577,-0.0493032235520641,0.6639722648038389,0.023795070440840282,0.7822328081314318,0.30124267715888725,0.550343838117147,0.10981928102378258,0.008042139995817892,0.1342626237036459,-0.1857960719529733,0.29622893611067624
248,12.0,Exhale,2,0.14394513568221812,-0.09523077017093093,-0.0950091011169519,0.2985833868583875,0.9579657422202519,0.24527475728252812,0.6417035549433998,0.02485298242631353,0.7950192333102083,0.3016319465537992,0.4870924652835329,0.10051866299896901,0.0060431480437882195,0.05698297696655543,-0.279150173287292,0.31759891495184317
249,12.333333333333334,Exhale,2,0.12343187855239474,-0.10819393219034626,0.024156048877732872,0.2530443442663709,-0.054558455368335285,0.5534997275560151,0.6143457328397697,0.026447161440092563,0.7896008477150497,0.2922381240302697,0.40790768148851164,0.09172555513551854,0.014686852592583267,-0.017482998762607213,-0.3298146597069335,0.32509771558572176
250,12.666666666666666,Exhale,2,0.1006836145816807,-0.11443601323798283,0.18033137219768755,0.16665543910503336,-1.0104735721209208,0.835427569936509,0.5816958184723087,0.027196487383186564,0.7640685728723603,0.27365661131154995,0.3206508719069247,0.08255497974651528,0.02858762554169036,-0.07509632646432235,-0.3342405077723531,0.3227762080874797
251,13.0,Exhale,2,0.0810091124617754,-0.11104750705363473,0.33630443702588103,0.06290517610883184,-1.7513421291486042,1.0808778537554253,0.5431729442381967,0.0263445327154879,0.7185263995093819,0.24854672280016057,0.23115187721876954,0.07240628471879855,0.044146731807335964,-0.11000879520586766,-0.2994300390732686,0.3203569359265468
252,13.333333333333334,Exhale,2,0.06777455873182879,-0.09714396758879806,0.4638354356363769,-0.035144371685977685,-2.1232249285719242,1.2847409093289652,0.4994310544915994,0.024045302752764945,0.6565654440814253,0.22016447246331877,0.14248946401451731,0.061201492119538035,0.06108007582447533,-0.1268032617513258,-0.23708468475210365,0.3247238504576788
253,13.666666666666666,Exhale,2,0.06120077931783419,-0.07416511797320886,0.5510260135851683,-0.11164833603092356,-2.0217068059135084,1.3850192822026899,0.4533996207234395,0.021278630887479392,0.5852050853222978,0.19167292178352374,0.055687156554212434,0.04921531622068918,0.0811525064431162,-0.13618329626799508,-0.15828033121927354,0.3356081978981886
254,14.0,Exhale,2,0.059085011369910345,-0.04502638246513981,0.6014685077896121,-0.16072931407326294,-1.4334495401922183,1.2652751152904422,0.4097600443598592,0.01937101869829883,0.512167150317286,0.16723067085563906,-0.029016595171074227,0.03687778746621659,0.10669693957227804,-0.14858212929881703,-0.07057929457225989,0.34684805053842727
255,14.333333333333334,Exhale,2,0.05852751677746579,-0.01304279787815545,0.6272286366404358,-0.1847530968744177,-0.4525237712589162,0.8355307144532946,0.3733226836745649,0.01937913594792238,0.44300973375338115,0.15269802718773284,-0.11097040823148,0.024716724281511993,0.13981992658315873,-0.17016207546845222,0.021136123171235897,0.3513761940716545
256,14.666666666666666,Exhale,2,0.05738742413577065,0.018660144380769555,0.6386462797379564,-0.18859659464360365,0.7423720988204686,0.12043606921836782,0.3472878523762459,0.021684848896878398,0.3808281533981849,0.1535348828742498,-0.18857907100611798,0.013338943913453733,0.18038323894149996,-0.20105448649045038,0.11142828971295586,0.34576000708819116
257,15.0,Exhale,2,0.05495834253776458,0.047293702501878476,0.6370540883268669,-0.17410108738979624,1.9282441642693668,-0.7098558664702462,0.3323122941320049,0.02600569985920883,0.3283946662649227,0.1708972272243119,-0.25957885353889615,0.00346988926881947,0.22292670151135596,-0.23466327964558328,0.19194523219021317,0.3313264300550874
258,15.333333333333334,Exhale,2,0.051949126335540066,0.07047824716680097,0.6154361655084089,-0.13950471915632714,2.8970444156619113,-1.406280730780657,0.32663205522462174,0.031693699932375516,0.2898713587361013,0.19944931185675185,-0.3218136911478509,-0.003961525450400476,0.25607133275202343,-0.259628440206412,0.25243679787402545,0.311483198470911
259,15.666666666666666,Exhale,2,0.049976680286966106,0.08641951835308957,0.5649451357774716,-0.0837743699514001,3.5459471539891005,-1.7888935370959926,0.32665134562789544,0.038010332447847954,0.2698409827770379,0.2289070897518674,-0.3741916018083705,-0.007985479602687433,0.2663203529610629,-0.265218980372017,0.28489211139890697,0.28661726178478264
260,16.0,Exhale,2,0.050846828984846784,0.09418022001062377,0.4814972180998844,-0.011395141563179407,3.9281256039254897,-1.8598140187846608,0.3276109820916449,0.04422786997291229,0.27062813892662196,0.24808741532595008,-0.41734928193633625,-0.008099201668767951,0.24462348145893284,-0.24787056937816374,0.28749749764775806,0.2510322851176754
261,16.333333333333332,Exhale,2,0.05579027636503351,0.09394267551331327,0.36854639207545453,0.06687668251163036,4.16940367628286,-1.7592552668143775,0.32443331214029886,0.04964133212908142,0.2900234234531445,0.24916268887498436,-0.4537525849104433,-0.004654015055110602,0.19190780930298965,-0.21520042066043754,0.26424152411685087,0.19728700264756321
262,16.666666666666668,Exhale,2,0.06480082160129218,0.08705155488947595,0.2352212007524876,0.13848697282634878,4.317923945057257,-1.6095524997601334,0.3128346397335844,0.053625292544331855,0.32066587379052575,0.2306053451656552,-0.4872726032878197,0.0013165979053344286,0.11932046716200335,-0.18352589226881336,0.2199697147741511,0.12618879900113494
263,17.0,Exhale,2,0.07643685113863904,0.07568861656905124,0.0922581620739724,0.19551584986075146,4.324350754990669,-1.4365949592962204,0.2906026723411174,0.055730206299948064,0.3518105479110559,0.1976602729576848,-0.5220533364310875,0.008588588281651715,0.04270341985063606,-0.16893301345518466,0.15641602235828092,0.05228297810326018
264,17.333333333333332,Exhale,2,0.08825393704841748,0.06226263023353879,-0.05003961943361587,0.23735992850439097,4.197073909272385,-1.2547918237790425,0.2583807186663285,0.05568097057168398,0.37263964815743017,0.15999191487150452,-0.5608086774810811,0.015994212616893547,-0.023967112382592595,-0.17878364862447949,0.07425837255372064,-0.002520180332502747
265,17.666666666666668,Exhale,2,0.09764337053669364,0.048785812575117216,-0.18063283511773923,0.26688178929642836,4.127268226520494,-1.1766697631109495,0.2192226609598475,0.05329560262558374,0.374841005238219,0.12798998453661473,-0.6033892894643411,0.022338300043541925,-0.07170104262607598,-0.21013278311151792,-0.020474351131633994,-0.022947148147560388
266,18.0,Exhale,2,0.10281289125645342,0.03653793525288098,-0.28752889611045657,0.28428938360418676,4.398210446245803,-1.3801071877042688,0.17725043271938073,0.04855552996070163,0.3535333170767974,0.10985639744531789,-0.6462892930009456,0.026411996484589664,-0.09632680592790041,-0.2538665351116024,-0.11226210080192926,-0.010725293193205252
267,18.333333333333332,Exhale,2,0.10354812667551823,0.026109989730407256,-0.36153083420894716,0.28565799376101886,5.1475125023834725,-1.957038479139899,0.13644478537637134,0.04186576970085455,0.30758101942352145,0.11031139187515693,-0.6832750046317977,0.02733420744223336,-0.09802221593618533,-0.2986288739768148,-0.17942306986977297,0.016897787638447848
268,18.666666666666668,Exhale,2,0.1011965392181742,0.017620061074407244,-0.3993983016586501,0.2668341851060441,6.203324681293941,-2.8040466114655227,0.100186614210794,0.03421673163306676,0.24037912054041732,0.13021168908125638,-0.7070009632316059,0.024970007858163386,-0.08178810001560027,-0.3318028609184619,-0.20353938223286897,0.03880833475807897
269,19.0,Exhale,2,0.0976932647975963,0.010875533636419289,-0.40150090340226907,0.2277295975522321,7.139743726910625,-3.654613198496353,0.07148922543506779,0.027023753377488892,0.16084850950389923,0.16615793641251295,-0.711042478391927,0.02010833307193089,-0.05616081096228746,-0.34167615508964905,-0.1778227505211725,0.04169476662230652
270,19.333333333333332,Exhale,2,0.09427386055588838,0.005522100465663993,-0.36832067236779376,0.17415008245296018,7.516446429548662,-4.215318510499765,0.05339356559620298,0.02171568656700605,0.08310442479906394,0.21039070839085156,-0.6915633915671878,0.014288416908117807,-0.028033487045751166,-0.3242744821029813,-0.10910090908791369,0.024279375524856952
271,19.666666666666668,Exhale,2,0.09081844397747797,0.0013121447616403778,-0.3024735429158798,0.11756545356002958,7.117241677433891,-4.30224751161174,0.048909088422284946,0.01927076501227394,0.02346056718423019,0.25207434047151134,-0.6481129138432415,0.009316102000888327,0.0024512578424746717,-0.2887061687066776,-0.014684383147595638,-0.003563121868515389
272,20.0,Exhale,2,0.08618652601025512,-0.0016269199922506739,-0.21356161430814885,0.07228184994680606,6.019921650951754,-3.903554756331423,0.06024503881341786,0.01987392190660007,-0.004753655824412016,0.2801609295529774,-0.583502598184265,0.006655828566138476,0.041265494188761236,-0.2528390873815884,0.08330417043286537,-0.023770328158261824
273,-10.0,Inhale,3,-0.17980832160747914,-0.12325793883452972,0.5443980082639391,-0.20330289712132218,-4.259843282823518,3.774880770263453,-0.07603124754770355,-0.14866752568136846,0.2690093325393283,-0.057904777821769365,0.5397672607249067,0.023377870364643828,0.1226999850562733,0.09256543342445041,0.12864752029120388,-0.05328497041830193
274,-9.666666666666666,Inhale,3,-0.17405615397088303,-0.13213749653728107,0.45571255836487856,-0.15533106298729174,-3.695006897158141,3.780634622571631,-0.08792005347087,-0.1373162646639304,0.27882623226407116,-0.03353544178676364,0.5103900325955942,0.028176619055568796,0.08483138332370806,0.04561377059120815,0.014061390224110236,0.0027743573016895976
275,-9.333333333333334,Inhale,3,-0.1573726778451713,-0.1398320145591293,0.3861766710439953,-0.1033598378970001,-2.268377042483876,2.999613693330868,-0.09137371401276947,-0.12235210203520479,0.2841538674461322,-0.009430722209482177,0.4734470722348668,0.02929066485021205,0.05932230750213376,-0.014391342941178482,-0.10745143413323724,0.060706993632760956
276,-9.0,Inhale,3,-0.1285210950317745,-0.14418417389962349,0.3325495109282513,-0.05794281344067253,-0.2494824015415356,1.5841465318608818,-0.08811099005027885,-0.10553608557150514,0.2781162987646524,0.017410093186630594,0.43512366603835056,0.026689395617069647,0.03828427482403647,-0.06442008735473453,-0.22136322595005326,0.11614628694553772
277,-8.666666666666666,Inhale,3,-0.09067759547755595,-0.14399744607865805,0.28491102684416364,-0.025461449197268633,1.9134591772896217,-0.13614675376333224,-0.08174657394775629,-0.08800669567537223,0.25565975975712174,0.046609246455931584,0.3979696334020623,0.020521420691952775,0.015741965305810145,-0.08679735895861262,-0.31394256788414093,0.16492724239454817
278,-8.333333333333334,Inhale,3,-0.05058661223154336,-0.13920253182338393,0.23795605609375395,-0.007281714273818799,3.7024602751563878,-1.7558525178253037,-0.07554917853082631,-0.07038439369463648,0.21772509225985864,0.07259610337748006,0.36137636159308323,0.011681242169091171,-0.008516766913621457,-0.07802252919402802,-0.37312074855070126,0.1992578780932053
279,-8.0,Inhale,3,-0.01608977738946259,-0.13064770262673447,0.19700042328932543,-0.0016724111392291071,4.6765379104540665,-2.9061744590815612,-0.07124643637847583,-0.05321153296497591,0.17106741617534607,0.0871006780150847,0.3234738780541205,0.0020784056916639806,-0.029182012369965746,-0.05073587316628931,-0.3926085940263144,0.20925462218208432
280,-7.666666666666667,Inhale,3,0.006500801879427477,-0.11950711097133276,0.1736363725761686,-0.007182445148549373,4.6109818577593,-3.339682303388305,-0.06910957442935267,-0.03727746158713849,0.12433268378158432,0.08394036469814237,0.282964036368581,-0.005922186405627516,-0.03991984596909216,-0.02567527180963329,-0.3744494374498298,0.18713089910921651
281,-7.333333333333333,Inhale,3,0.014021729753266772,-0.10661453441775716,0.17541523239132012,-0.024394239127410372,3.556710709846791,-2.9787128521780275,-0.06881238663789883,-0.023547396130724176,0.08347670977508365,0.06238633269958377,0.23988634294335365,-0.010640503964785865,-0.03984526776328305,-0.01698843550013532,-0.32748118484833405,0.13163064782687545
282,-7.0,Inhale,3,0.006933916178078215,-0.09218860582578474,0.1981752523764405,-0.054380051839560066,1.7900969799976234,-1.9336179499916504,-0.07038395485558888,-0.012808424999361613,0.0492863397094767,0.0271332028879892,0.19534911713379657,-0.011907884107154628,-0.03636380781607501,-0.022177143258645223,-0.2643718734087291,0.05225411383395697
283,-6.666666666666667,Inhale,3,-0.010981807081237157,-0.07610031671144672,0.22575178420696115,-0.09490166985722825,-0.27825936350762137,-0.49068346198168744,-0.07463000604523537,-0.005346547347436318,0.01768662013414449,-0.01398185931852988,0.15064519994903824,-0.010915239436052788,-0.040687005207168975,-0.025608940895842452,-0.19915845575487595,-0.030336308664644103
284,-6.333333333333333,Inhale,3,-0.03358813859904185,-0.05831800790498949,0.23563314728556597,-0.13714782685620708,-2.18084847829222,0.9542638374443261,-0.082564276000986,-0.0008041640862935043,-0.017579802963985935,-0.052621958499645426,0.10626599854962218,-0.009264869581264759,-0.05908032058874928,-0.012660641400294697,-0.14388013336518846,-0.09201513109407379
285,-6.0,Inhale,3,-0.05399392303284591,-0.03909681200955121,0.20700492078969504,-0.16658776250389062,-3.488798676280593,2.032136072864159,-0.09404954571817138,0.0018136312715042256,-0.06067673353124505,-0.08235251372745318,0.0614878256318739,-0.008028348260435568,-0.08744925823810301,0.017871045840649327,-0.10407032543152088,-0.11793152895872136
286,-5.666666666666667,Inhale,3,-0.06636943436910868,-0.018889845154414584,0.1295607921019824,-0.16968309236661228,-3.9365061786186235,2.5407477215302126,-0.10681200610217498,0.003962347260290492,-0.11018147261017147,-0.10027095535668841,0.014924483945145237,-0.007539782033528121,-0.11367875153665638,0.052673660032486594,-0.07641914353645876,-0.11053194845135425
287,-5.333333333333333,Inhale,3,-0.06730906040673984,0.0017673627677733958,0.01091225661370331,-0.142967207074309,-3.5125640569464838,2.485088891151085,-0.11699889093027153,0.0071321612428526466,-0.1593153322643701,-0.10691285107518729,-0.03432730840160409,-0.007881872909572709,-0.12458234371974915,0.07235160215728452,-0.05151526555745872,-0.08654784075214861
288,-5.0,Inhale,3,-0.056254073605907964,0.02227790622908189,-0.12276200391371107,-0.09723449216501347,-2.4583123393916715,2.004748508399376,-0.12094420906655833,0.012265323606475231,-0.19981587746890261,-0.10452456483116175,-0.08563530300425028,-0.009282511060452085,-0.11155708700395095,0.06123567750204827,-0.020551612032718772,-0.06564020314473729
289,-4.666666666666667,Inhale,3,-0.03496024482199554,0.041983156108497385,-0.2365364137258436,-0.05215385487170448,-1.167585835514544,1.266453073636113,-0.11665076764478417,0.019344780456005097,-0.22632932295204977,-0.09487302233949854,-0.13640975198550795,-0.011892804922210568,-0.07354226644694623,0.01436980005103187,0.01781317896969908,-0.05807329411815865
290,-4.333333333333333,Inhale,3,-0.006516449808486957,0.06020198655118227,-0.302973456809768,-0.024131611349255466,-0.03008505236386071,0.3966623155065143,-0.10403726145602465,0.027460246742326912,-0.23833381589985808,-0.0779251900516538,-0.18267152969237152,-0.01532461513652836,-0.019175906371574524,-0.057834935860449806,0.05442250809261606,-0.05801648135593737
291,-4.0,Inhale,3,0.025555717714791107,0.07632397019833197,-0.3139621996770301,-0.016636126818687227,0.7039249574887562,-0.5148854637707438,-0.08402164480714544,0.03533957049408039,-0.23859516419461405,-0.052519164749595976,-0.2203620647844167,-0.018592008357423164,0.03356173861192447,-0.12962730807547798,0.07337911423325194,-0.04658691384107519
292,-3.6666666666666665,Inhale,3,0.05785244273343521,0.08996660404429604,-0.280665156136033,-0.020264554229065052,0.9654758857467954,-1.361824419993591,-0.057321024960068405,0.04201696450954235,-0.2298485846211294,-0.018862905302969656,-0.2468480380838126,-0.020480331496624146,0.06427917019484486,-0.1697451833129608,0.06213887543589599,-0.004602930757786302
293,-3.3333333333333335,Inhale,3,0.08725835178784498,0.10110125028851766,-0.22515594497875427,-0.020492830319200968,0.8140462558855202,-1.9846631710043907,-0.02415274842711814,0.04725801473987034,-0.21283740234889215,0.019237726682308044,-0.26227971794821436,-0.02000074540451857,0.061293158804839834,-0.1579627333877345,0.022257940073482814,0.07163892841831236
294,-3.0,Inhale,3,0.11107028850039195,0.10999330343116442,-0.17124661371690467,-0.005825039862495981,0.3728515990728926,-2.211964209236029,0.015023502752106637,0.05152057596024287,-0.1871001088370381,0.05469900007969783,-0.26998994854319,-0.016867521161428877,0.02812852745965551,-0.09547814935568506,-0.026986939505301018,0.16278809055315724
295,-2.6666666666666665,Inhale,3,0.1273175490310043,0.11692538960882186,-0.13728057430881638,0.02777730453433672,-0.18174368988781492,-1.967847884753872,0.058666469285975444,0.05548143539562956,-0.15329916868494822,0.08013843270239415,-0.27519562395815905,-0.011859363143767088,-0.019347365275592488,-0.001829714497051694,-0.055838276343156974,0.23376261399923517
296,-2.3333333333333335,Inhale,3,0.13500694016487302,0.12185183379199428,-0.1318362652345225,0.07643057761436939,-0.6167647104313577,-1.3512605106901667,0.10393216908439777,0.05946005514490918,-0.11468546747260937,0.09108125602489386,-0.2826266920327168,-0.0065349173770055955,-0.06127188721397665,0.09569572488313426,-0.03795495117984944,0.2508413767624948
297,-2.0,Inhale,3,0.13405538635197586,0.12426948793361407,-0.15375744931146224,0.13084074922088082,-0.700107029742359,-0.6032009399085922,0.14726355280208572,0.0631774117795471,-0.0759115516987727,0.08680029573645844,-0.29432738860123275,-0.0022441000028349057,-0.08109240840660008,0.1711133114703607,0.03805839452745245,0.1967603031097696
298,-1.6666666666666667,Inhale,3,0.12501896162232504,0.12346684532490503,-0.19535467259001896,0.18015384185958527,-0.3169988242133259,0.012121293094551202,0.18548444884378915,0.06599068909772185,-0.040304815808964195,0.06922790248341884,-0.3085992149407157,0.0007236682646477587,-0.06899340737829564,0.2044163530965038,0.16481579071810395,0.07718410639343447
299,-1.3333333333333333,Inhale,3,0.10883162966530624,0.11892444329993247,-0.2455787612205053,0.21576803837925249,0.4306362007392099,0.3208503414351842,0.21664725330232698,0.06731977648946276,-0.008592380920027365,0.04252432786832308,-0.32061522647930724,0.0031404687847835437,-0.02334922942161863,0.18512163230037734,0.3186280726222667,-0.08067219597547258
300,-1.0,Inhale,3,0.08677133862537968,0.11050395831843243,-0.2920485387417074,0.23444758141381164,1.2307324865635294,0.29249743756656,0.24021898936616023,0.06686903215255417,0.02018097969744157,0.013495630534314443,-0.32429461244727203,0.006185546695504769,0.04717207578346895,0.11781031153805707,0.46536316665162203,-0.23549738646288412
301,-0.6666666666666666,Inhale,3,0.06067075934538852,0.09833795099796096,-0.32367852817130816,0.23961923676814925,1.7132188840359197,0.024853424028926725,0.25669559577591905,0.06454009725891457,0.04738568861551784,-0.009666914516224954,-0.3144388831159466,0.010770771862954286,0.12252385450208221,0.02575291010584816,0.5690154594202057,-0.3451052016553177
302,-0.3333333333333333,Inhale,3,0.033093588434041685,0.08261032633456339,-0.3346445581376798,0.23967460632524773,1.671482695036217,-0.32291713718833304,0.2669216572667573,0.06027218512669922,0.07435578390422581,-0.020792116453446505,-0.28830934059640656,0.01722293594483512,0.175789946193424,-0.05503440155491288,0.6028365054318713,-0.3828438018204174
303,0.0,Inhale,3,0.007125963491703783,0.06346876212554724,-0.3273128764960781,0.2436230543301605,1.188667984124911,-0.6102644999282539,0.271612852540542,0.0540342957093185,0.10214419745359284,-0.018205635392580605,-0.2461402645492705,0.025320594768287623,0.18400655007881828,-0.0916011824697736,0.559726252266087,-0.349372323085248
304,0.3333333333333333,Inhale,3,-0.014391703473110473,0.04116072659056433,-0.31096640261463626,0.255693720415418,0.5748835082561954,-0.7669137919368856,0.2714694437705003,0.045960694785369696,0.1309384170001448,-0.003915652373729705,-0.1906622505165443,0.03459160135596949,0.13966000948308063,-0.07029790159309202,0.4556537903776775,-0.27126558717807103
305,0.6666666666666666,Inhale,3,-0.029875790001589242,0.01624615724141194,-0.2960224156315089,0.2717838074055038,0.1807979350130446,-0.8001146523995575,0.26775386785841077,0.03653036799714036,0.15999612083678802,0.018982617750653547,-0.12613747959536364,0.04475844430366218,0.0556164021756026,-0.0031572769057844874,0.32236641218000955,-0.18555940481082916
306,1.0,Inhale,3,-0.039475082589854105,-0.010360088720680831,-0.2881275892634553,0.2814443268542475,0.22524855402453742,-0.7728533455711616,0.2628243183038581,0.026696390598570385,0.18890556461952984,0.04768414915273603,-0.05713852600237121,0.0559609186568785,-0.03999301555862734,0.07920607818934336,0.19249154890150355,-0.11885483343890413
307,1.3333333333333333,Inhale,3,-0.044492475292469365,-0.03754838550716049,-0.28672045666602924,0.27502290554175884,0.7304420311052282,-0.7831176315553889,0.2601274265552781,0.01782900911113749,0.21905842554048274,0.07933059841869453,0.012811289953016553,0.06845624957432671,-0.11658100677696696,0.1442151005752494,0.08617940125255362,-0.07403288252190893
308,1.6666666666666667,Inhale,3,-0.04612585694691068,-0.06411044385732606,-0.2868458765030685,0.2500031715873536,1.5693425279913127,-0.9487637508988758,0.2635249076958867,0.011383041774993588,0.2535259036799531,0.11074340519831462,0.08214904959772991,0.08217234597174526,-0.15396263783650535,0.17337054694621395,0.007873579563932523,-0.03346552918847671
309,2.0,Inhale,3,-0.04454051367880336,-0.08860952141421363,-0.2803098858278025,0.21189532051500107,2.5568364491244724,-1.3687784657200073,0.2762609473242812,0.008390060855517488,0.2953524122928064,0.1390089612769649,0.1511330542913555,0.09665571435681751,-0.14754419852173867,0.1676706525204283,-0.047267184573430876,0.02531862466324688
310,2.3333333333333335,Inhale,3,-0.03904877664280624,-0.10933289381695711,-0.2560816190762931,0.17041200214519994,3.5053910162686597,-2.051862165862492,0.30006887019860223,0.009008577382519707,0.34592485502429005,0.16185534079544744,0.22090279069155108,0.11127163340975506,-0.10543869471065741,0.14219965906716828,-0.08555048850797274,0.11518000343457913
311,2.6666666666666665,Inhale,3,-0.029254423830243254,-0.12477282539094514,-0.20255312845665643,0.13378292267567254,4.2356896495815315,-2.8614392450892554,0.3347878248082424,0.0123217084563251,0.4044011896027684,0.17742330396730557,0.29255718535274344,0.12526744486343847,-0.043137063353674204,0.11800073891796203,-0.11092152812489138,0.23434853043328419
312,3.0,Inhale,3,-0.016102454394364096,-0.1344948332184173,-0.11199844263294398,0.10389019413934512,4.614545978703583,-3.5495966490450632,0.3785280856905583,0.016482363324898375,0.46784856602996544,0.18463596265932203,0.36674267806706395,0.13780866489748683,0.021651884564883737,0.11485864444406768,-0.123794800596108,0.36785599518870243
313,3.3333333333333335,Inhale,3,-0.0017690632097262225,-0.1396096958967556,0.01509758554854089,0.07519572595563846,4.639469984691426,-3.8854739408391117,0.42814974020189295,0.01923703757535708,0.5317885153228089,0.18451248529008202,0.4436973371364774,0.14818738395877007,0.07552473925712838,0.1426425639661338,-0.12058861740404703,0.4907397077447476
314,3.6666666666666665,Inhale,3,0.011492949003838267,-0.14232309059021403,0.16730817969027617,0.03957903850023971,4.460073331431152,-3.779846531242082,0.479770480052527,0.0186628401476439,0.5912664144079333,0.18076484321137967,0.5233494912548612,0.15593089779544897,0.11484264388044914,0.1947698220348794,-0.09547556940875562,0.5741858091096146
315,4.0,Inhale,3,0.022436758197891593,-0.14493330863556486,0.32142288677322506,-0.004800043356706579,4.271765983790282,-3.3079878496452,0.5291985672011981,0.013750973698189376,0.6422068452592824,0.17859294810770904,0.6049556720476151,0.16059920715184223,0.14390779992586386,0.25244746511982,-0.04606863688492374,0.5965581936138553
316,4.333333333333333,Inhale,3,0.031115664182016924,-0.14905101560948636,0.445738333128434,-0.04738382102292164,4.177625225999897,-2.635279698450572,0.5724333509954029,0.004630194741031788,0.6828591947209648,0.18249247098625765,0.6862024237065645,0.16165632434012697,0.16651464082687265,0.29809505993156776,0.019793335635079935,0.5546697751427714
317,4.666666666666667,Inhale,3,0.038529263982592224,-0.1554162824886921,0.5099864935681813,-0.06826777180413901,4.137018735818506,-1.9236227006486077,0.6063390225689733,-0.007472128635138054,0.71521162037577,0.19419157565358966,0.7624573311909005,0.15875177414752756,0.18025074166183638,0.3248449780208097,0.08207763070341301,0.46758731892448474
318,5.0,Inhale,3,0.04584861275388594,-0.16416540787594067,0.4991376022491607,-0.04960775111396222,4.0251397809545075,-1.286495921223203,0.6291753867871938,-0.020489654683165385,0.7447585928381313,0.21185164574869314,0.8269105806801604,0.15210604181184123,0.17955734921983738,0.3342767607190848,0.11436838851402072,0.3699327004514305
319,5.333333333333333,Inhale,3,0.05336709809722251,-0.17521596207470955,0.42336414475631146,0.012520936908194141,3.738425938856922,-0.7877144330273429,0.6405810038761607,-0.03209700439945177,0.777031625270933,0.23153754494986917,0.8717820152192233,0.1425953580131273,0.16295824998638864,0.328193644146824,0.09542641675363875,0.29689449972940996
320,5.666666666666667,Inhale,3,0.059718166458832,-0.18847292945775115,0.31766081044405853,0.10357842949773373,3.248618813275928,-0.434349686257874,0.6412221346101046,-0.04048837021010342,0.8131249599235393,0.24972317608118835,0.8904035502999351,0.13153861282563659,0.13648180542401403,0.3044030458013218,0.021156940755141775,0.26746426950130797
321,6.0,Inhale,3,0.062007874627764255,-0.20371233829436475,0.22993675310703082,0.1952497626104917,2.5772605417630237,-0.1693682585707787,0.6324974592136242,-0.04496560164125394,0.8484601997694806,0.26413544832584235,0.8793903998652677,0.12032521021195391,0.11081240958911875,0.2594220959603259,-0.09076660346408581,0.27657011855926866
322,6.333333333333333,Inhale,3,0.05707027860473586,-0.22022264948175044,0.20203112960030165,0.25646072575750173,1.7520595999476682,0.08967641968620278,0.616187460007439,-0.046023253825451034,0.8756740911056052,0.2727227229059095,0.8397312852541398,0.10995478053114797,0.09529325388174192,0.19402560262745294,-0.20867914459197928,0.30260269846802385
323,6.666666666666667,Inhale,3,0.043455278435187476,-0.23636710169493794,0.25272866221265816,0.2659333695480436,0.8021216425791624,0.38425440052079496,0.5939187501469998,-0.04496534183997778,0.8884605162843817,0.27311199230082134,0.7764799124205257,0.10065416250633441,0.09329426192971225,0.11674595589036249,-0.302033245926298,0.3239726773091907
324,7.0,Inhale,3,0.02294202130536409,-0.2493302637143533,0.37189381220734286,0.220394326956027,-0.2104025550094247,0.6924793707942819,0.5665609280433698,-0.04337116282619875,0.8830421306892232,0.26371816977729184,0.6972951286255044,0.09186105464288394,0.1019379664785073,0.04227998016119986,-0.35269773234593954,0.33147147794306936
325,7.333333333333333,Inhale,3,0.00019375733465007175,-0.25557234476198987,0.5280691355272975,0.13400542179468947,-1.1663176717620103,0.9744072131747759,0.5339110136759088,-0.04262183688310475,0.8575098558465338,0.2451366570585721,0.6100383190439175,0.08269047925388068,0.1158387394276144,-0.015333347540515276,-0.35712358041135916,0.32914997044482724
326,7.666666666666667,Inhale,3,-0.019480744785255213,-0.25218383857764176,0.684042200355491,0.030255158798487947,-1.9071862287896937,1.2198574969936922,0.4953881394417967,-0.043473791550803415,0.8119676824835554,0.2200267685471827,0.5205393243557623,0.07254178422616395,0.13139784569326,-0.0502458162820606,-0.32231311171227456,0.32673069828389434
327,8.0,Inhale,3,-0.03271529851520184,-0.23828029911280507,0.8115731989659869,-0.06779438899632159,-2.279069028213014,1.4237205525672318,0.45164624969519945,-0.04577302151352637,0.7500067270555988,0.1916445182103409,0.4318769111515101,0.061336991626903425,0.14833118971039935,-0.06704028282751874,-0.2599677573911096,0.33109761281502637
328,8.333333333333334,Inhale,3,-0.039289077929196434,-0.21530144949721589,0.8987637769147784,-0.14429835334126745,-2.1775509055545976,1.5239989254409567,0.40561481592703946,-0.04853969337881192,0.6786463682964713,0.16315296753054587,0.34507460369120524,0.049350815728054574,0.16840362032904022,-0.076420317344188,-0.18116340385827953,0.3419819602555362
329,8.666666666666666,Inhale,3,-0.04140484587712028,-0.18616271398914683,0.9492062711192222,-0.19337933138360683,-1.5892936398333077,1.404254758528709,0.36197523956345923,-0.050447305567992484,0.6056084332914594,0.13871071660266118,0.2603708519659186,0.03701328697358198,0.19394805345820207,-0.08881915037500998,-0.09346236721126588,0.35322181289577487
330,9.0,Inhale,3,-0.04196234046956484,-0.15417912940216247,0.9749663999700459,-0.2174031141847616,-0.6083678709000057,0.9745103576915617,0.32553787887816493,-0.05043918831836894,0.5364510167275547,0.12417807293475497,0.1784170389055128,0.02485222378887739,0.22707104046908275,-0.11039909654464516,-0.001746949467770103,0.3577499564290021
331,9.333333333333334,Inhale,3,-0.043102433111259976,-0.12247618714323746,0.9863840430675663,-0.22124661195394754,0.5865279991793791,0.25941571245663464,0.2995030475798459,-0.04813347536941292,0.47426943637235836,0.12501492862127192,0.10080837613087479,0.013474443420819132,0.267634352827424,-0.14129150756664333,0.08854521707394987,0.3521337694455387
332,9.666666666666666,Inhale,3,-0.04553151470926604,-0.09384262902212855,0.9847918516564771,-0.20675110470014013,1.7724000646282774,-0.5708762232319793,0.2845274893356049,-0.04381262440708249,0.42183594923909623,0.142377272971334,0.02980859359809664,0.003605388776184868,0.31017781539728,-0.17490030072177623,0.16906215955120718,0.337700192412435
333,10.0,Inhale,3,-0.04854073091149056,-0.07065808435720605,0.9631739288380189,-0.17215473646667104,2.7412003160208216,-1.2673010875423902,0.27884725042822184,-0.0381246243339158,0.38331264171027485,0.17092935760377398,-0.03242624401085813,-0.003826025943035078,0.3433224466379475,-0.19986546128260493,0.22955372523501943,0.31785696082825854
334,10.333333333333334,Inhale,3,-0.05051317696006452,-0.05471681317091744,0.9126828991070817,-0.11642438726174399,3.390103054348011,-1.6499138938577258,0.2788665408314955,-0.03180799181844336,0.3632822657512114,0.20038713549888953,-0.08480415467137774,-0.007849980095322034,0.3535714668469869,-0.20545600144821,0.262009038759901,0.29299102414213013
335,10.666666666666666,Inhale,3,-0.04964302826218384,-0.04695611151338325,0.8292349814294944,-0.0440451588735233,3.772281504284401,-1.720834375546394,0.2798261772952449,-0.02559045429337903,0.3640694219007955,0.2195674610729722,-0.12796183479934348,-0.007963702161402554,0.33187459534485686,-0.18810759045435668,0.2646144250087521,0.257406047475023
336,11.0,Inhale,3,-0.04469958088199712,-0.04719365601069375,0.7162841554050645,0.034226665201286456,4.01355957664177,-1.6202756235761107,0.2766485073438989,-0.020176992137209897,0.38346470642731806,0.22064273462200645,-0.16436513777345052,-0.004518515547745204,0.27915892318891367,-0.15543744173663046,0.24135845147784482,0.20366076500491082
337,11.333333333333334,Inhale,3,-0.03568903564573846,-0.05408477663453106,0.5829589640820976,0.10583695551600489,4.162079845416168,-1.4705728565218665,0.2650498349371844,-0.01619303172195946,0.4141071567646992,0.20208539091267735,-0.1978851561508269,0.0014520974126998264,0.20657158104792736,-0.12376291334500629,0.19708664213514507,0.13256256135848252
338,11.666666666666666,Inhale,3,-0.024053006108391582,-0.06544771495495579,0.4399959254035824,0.16286583255040757,4.16850665534958,-1.2976153160579535,0.2428178675447174,-0.014088117966343256,0.44525183088522946,0.16914031870470694,-0.23266588929409476,0.008724087789017114,0.1299545337365601,-0.10917003453137761,0.13353294971927493,0.058656740460607745
339,12.0,Inhale,3,-0.012235920198613144,-0.07887370129046822,0.29769814389599414,0.20470991119404708,4.041229809631295,-1.115812180540776,0.2105959138699285,-0.014137353694607339,0.46608093113160365,0.13147196061852667,-0.2714212303440882,0.016129712124258948,0.06328400150333144,-0.11902066970067242,0.051375299914714644,0.0038535820248448214
340,12.333333333333334,Inhale,3,-0.0028464867103369772,-0.0923505189488898,0.16710492821187078,0.23423177198608447,3.971424126879404,-1.0376901198726827,0.1714378561634475,-0.016522721640707574,0.4682822882123925,0.09947003028363686,-0.3140018423273483,0.022473799550907322,0.015550071259848053,-0.15036980418771087,-0.043357423770639995,-0.01657338579021282
341,12.666666666666666,Inhale,3,0.0023230340094228027,-0.10459839627112603,0.06020886721915339,0.25163936629384287,4.2423663466047135,-1.241127544466002,0.12946562792298075,-0.021262794305589684,0.44697460005097095,0.08133644319234001,-0.35690184586395285,0.02654749599195506,-0.009075692041976375,-0.1941035561877953,-0.13514517344093527,-0.0043515308358576844
