,time,condition,epoch,S1_D1 hbo,S1_D1 hbr,S2_D1 hbo,S2_D1 hbr,S3_D3 hbo,S3_D3 hbr,S5_D5 hbo,S5_D5 hbr,S6_D4 hbo,S6_D4 hbr,S6_D5 hbo,S6_D5 hbr,S7_D6 hbo,S7_D6 hbr,S7_D7 hbo,S7_D7 hbr
0,-5.0,noise,0,0.06315086040108389,0.022582075425447833,0.09268797120400624,-0.05669160352294902,2.158033259217464,-0.3326018640738363,-0.11951161170871957,-0.002644992793927183,-0.0899972588091918,-0.009518514593801153,-0.14809334054652962,0.007424010249298827,0.12392723890034675,-0.11509410768117635,0.023300339023771995,-0.03323017000941275
1,-4.666666666666667,noise,0,0.08306458356845361,0.012838810728052636,0.19388705351001106,-0.08422868248544343,1.2097439405153854,0.06828971216242555,-0.07781086607880228,-0.0035277033457071917,-0.07220536354257441,-0.010712541270099315,-0.06813019039591325,-0.0005069593109069664,0.19209461463352648,-0.12777460953294242,0.10441866277071109,-0.038050102797823004
2,-4.333333333333333,noise,0,0.06498878041325888,0.005952866870519044,0.25893092365953796,-0.07318322625882347,0.4052000165478653,0.2533462254747252,-0.03176935742948533,-0.012677905194135454,-0.03054787748671492,-0.009133614889655917,0.019744191119607464,-0.0011742762394892647,0.23144678130368843,-0.12263823108429923,0.20428560731220521,-0.08497968289775785
3,-4.0,noise,0,0.016832550043034685,0.0014492021925658137,0.27842982792209475,-0.024033659182661274,-0.09892360191043996,0.23634525656335909,0.012170859823184313,-0.027791104232486517,0.02590662435157355,-0.0049970507266238065,0.10759460111590839,0.0044136577407518345,0.2397006237687789,-0.1024202749888858,0.29876199081086274,-0.14629404158031675
4,-3.6666666666666665,noise,0,-0.04096440429028894,-0.002955462591050456,0.2599840387753383,0.047688080073892795,-0.38308210713451535,0.1600009057863358,0.04960877870261713,-0.04399535456173464,0.08522471682246187,0.0011086532303857706,0.1851915995506354,0.013155369565109614,0.21845859332421289,-0.07000915437575947,0.35880506411675767,-0.18711588865667703
5,-3.3333333333333335,noise,0,-0.08645573984930278,-0.008936924826079455,0.21911291517741832,0.11869641931933929,-0.6529374066786505,0.20040403000702342,0.07821395955263734,-0.0558076008024196,0.1356698071352067,0.007280799343340524,0.24136480885193548,0.021294875294546076,0.17213920509679648,-0.02640957758818845,0.3625736255481096,-0.18003055887463834
6,-3.0,noise,0,-0.10599995968040715,-0.01617258138783956,0.1707578115785453,0.16617670728876816,-1.0437785440434943,0.4546462733360746,0.09632810222635915,-0.05933904289146794,0.167666702509244,0.010477110862595571,0.26663198902894186,0.025978725781217554,0.1084857743498791,0.025809893087780592,0.3057847624724168,-0.11937668071290557
7,-2.6666666666666665,noise,0,-0.09721584961434071,-0.02302150500165363,0.12444634730505987,0.17489291110607796,-1.508368962947202,0.883058703571449,0.10191044507092907,-0.05339106267437288,0.1750757238704991,0.007795589511049322,0.25597909382804346,0.025933532025621618,0.03824500674848256,0.07860521254705097,0.20212687156025666,-0.023280103564427748
8,-2.3333333333333335,noise,0,-0.06753555585796063,-0.027663005570148537,0.08128427676174292,0.14266492779437068,-1.833480856389123,1.3098043801004517,0.09307168080522776,-0.03919291058340947,0.1561586396918177,-0.001717011663330776,0.21028498559139824,0.02122167132669448,-0.02733819931861042,0.11886120294985916,0.07409206634438319,0.07816716649246304
9,-2.0,noise,0,-0.030373219059890422,-0.028470826810915697,0.03403534137675313,0.08075760413062381,-1.766273424652718,1.487287928794643,0.0696552070835121,-0.01942942574224849,0.11368222156868649,-0.015678032396688787,0.13563416460469266,0.012784175451028359,-0.08029881667027336,0.13377560031179755,-0.05663729058172952,0.15696712538963362
10,-1.6666666666666667,noise,0,0.001049226366310963,-0.024187558693225572,-0.027470758099986243,0.0073785869710408306,-1.195743902104103,1.228146837778285,0.03450020478316772,0.002877696323950692,0.05369210669359011,-0.028294441619983894,0.04115647179194032,0.0021252232228290394,-0.11900568783816867,0.11806147379741617,-0.17346269097738676,0.1949896228854076
11,-1.3333333333333333,noise,0,0.020015200680544274,-0.014439794320236883,-0.10971941211090884,-0.060259715442989796,-0.27392622176800385,0.5356587974053381,-0.006472068492964164,0.02530710581184696,-0.016241751069923142,-0.032226049573634376,-0.06316745780279648,-0.009118662907943784,-0.14857592796222233,0.0783572788886192,-0.2659835611501413,0.18732221781243968
12,-1.0,noise,0,0.028688302080049653,-0.00011394097492384895,-0.2131040409729664,-0.10901250782068092,0.6441624795392161,-0.3881257173561614,-0.04547250867431876,0.04643125477096281,-0.0882368781107952,-0.02207502396822824,-0.16782312262802043,-0.01968901503314096,-0.17772279647928804,0.03137942322531715,-0.33016096816870766,0.14283112048469437
13,-0.6666666666666666,noise,0,0.034999128842633134,0.01692455093289052,-0.33244802115935457,-0.12971540039305182,1.2427404866504763,-1.2922543997183689,-0.07498050518431647,0.06553341647776802,-0.15489395532797612,0.0024513265760879865,-0.26431616873605834,-0.028770803423733473,-0.21336347761987504,-0.003938816056953927,-0.3665560340629491,0.07932363294243197
14,-0.3333333333333333,noise,0,0.046987396118438135,0.03462981158464926,-0.45728445525247086,-0.119019908581209,1.4855590183947993,-2.0596225118623837,-0.08999136728502453,0.08208371647907341,-0.21023499311117663,0.03589632741029965,-0.34554878844965786,-0.03562311674809038,-0.25647971202422293,-0.015293299116839224,-0.3772308495432197,0.014411522765730142
15,0.0,noise,0,0.06876869983838446,0.051584282441948584,-0.5735298196748211,-0.08211053299630468,1.611075826763043,-2.744384557969358,-0.0894509531940037,0.09556391295830755,-0.2507184651847274,0.06934247376828744,-0.40650283692412725,-0.03944840699379255,-0.30171322021305086,-0.0012720143827965403,-0.3641175954753408,-0.041655179678841636
16,0.3333333333333333,noise,0,0.09972078275365648,0.06738734999202058,-0.6685142509040224,-0.031609407535887514,1.863036468796964,-3.430739658250423,-0.07638353313184301,0.10566783086010964,-0.2759991642665582,0.09415509533924837,-0.4452993701497137,-0.039678995611944816,-0.33994486533212787,0.02981474072807068,-0.33020729894008394,-0.08688644314176591
17,0.6666666666666666,noise,0,0.1358784127610504,0.08251303825236955,-0.7362681755137778,0.017920138375924488,2.2373352368613006,-4.076842566206354,-0.05676558645326414,0.11243412258469491,-0.28896755806473684,0.10500322349557313,-0.46397607412126296,-0.03623674316404756,-0.3618770224476249,0.06406127678349954,-0.28210637436017516,-0.12360073418841505
18,1.0,noise,0,0.17198638986604226,0.09782610783421859,-0.7790517313343236,0.056624168854340136,2.501615896251929,-4.515466456843352,-0.03752979765786852,0.11611414635428347,-0.29447609713983103,0.1007130388615461,-0.46792971870098843,-0.029676460241555607,-0.361432094516975,0.08716100393859237,-0.2311434240904713,-0.15388262653106033
19,1.3333333333333333,noise,0,0.20332187062168583,0.11405600402505044,-0.8050677883019146,0.08370072721362146,2.4383698905846027,-4.597841485079495,-0.02429923969074083,0.1169946294756873,-0.2968942695251011,0.08313940286784038,-0.4637722546337327,-0.021329162765533937,-0.33819015649802936,0.0896768435784213,-0.1913511918201114,-0.1771025785778357
20,1.6666666666666667,noise,0,0.2270036788161352,0.1314458156522496,-0.824630517491487,0.10677241465278457,2.068572957848872,-4.322990800823044,-0.019626359782983226,0.11537715341892726,-0.2979527775015657,0.0556099300763272,-0.4567419516079309,-0.013047663674492898,-0.2978817241947801,0.07069757122725782,-0.17494003331155814,-0.18998875352323918
21,2.0,noise,0,0.24268555548314805,0.14961062184742369,-0.8467585606519198,0.1360792900093915,1.67263269460264,-3.83314154584916,-0.02249709294123578,0.11168862557507073,-0.2966459287079105,0.022552691610957267,-0.44919328946844284,-0.006327899170930487,-0.2501329141154934,0.03761070705459517,-0.18714702680364112,-0.1894016475604765
22,2.3333333333333335,noise,0,0.2524948876122786,0.16754974526217042,-0.8766845673522673,0.1771580070993897,1.6098986530010606,-3.2997032470812795,-0.029300002571410237,0.10657984053565715,-0.291130405846814,-0.009862047544334203,-0.44063227984311787,-0.0015512225796410668,-0.20439512016644626,0.0020831318120212157,-0.22316715614259228,-0.17613524847121603
23,2.6666666666666665,noise,0,0.26012615316043464,0.1838211618522803,-0.9136096934906681,0.2270811923719663,2.0933536105222212,-2.819787688670156,-0.03559042964806825,0.10083978788800912,-0.28046024105052436,-0.0341506288309576,-0.4287314322985722,0.0018894330453718428,-0.16660800743274565,-0.024861776157251728,-0.26991229328037175,-0.1556673271216469
24,3.0,noise,0,0.2692793966134739,0.1969003085704295,-0.9495920685346636,0.2762604591267151,3.088066874384013,-2.4094344422764054,-0.0376910942108316,0.09507128398283457,-0.2646546003903923,-0.044138456051221346,-0.41077199179054935,0.004933332460359689,-0.13745999134090567,-0.03742116204423149,-0.31196997082960914,-0.1349039022777938
25,3.3333333333333335,noise,0,0.28201260321338356,0.2056200245146788,-0.9720749039228849,0.31342068364199316,4.365515280655476,-2.0693282199975847,-0.03362242191208767,0.0893730704981981,-0.24379370759939376,-0.0382015984316005,-0.38511703880725784,0.008444969931361656,-0.1115315906384632,-0.03915046738715137,-0.33710474068017093,-0.1191706777111785
26,3.6666666666666665,noise,0,0.2976937839241073,0.20950932610637255,-0.9701411980288518,0.3306026337769507,5.604550959329047,-1.8345584922528158,-0.02335476569741091,0.08339540768714644,-0.21721617183464378,-0.02110742318396481,-0.3520647609125036,0.013069625874535605,-0.0790969771306051,-0.04236120384606086,-0.3383116554318575,-0.11164495453165117
27,4.0,noise,0,0.3130404952317338,0.20894963038137052,-0.9404194004155761,0.32679542427224817,6.455414535350546,-1.7576613336843878,-0.008418405335628761,0.07680812165207805,-0.1831990088686895,-0.0033829224457273812,-0.3134864444068755,0.018998481513480856,-0.032237838742320425,-0.05927926944293754,-0.31406491821138055,-0.11231571252612149
28,4.333333333333333,noise,0,0.32337503191613387,0.20517184883321207,-0.8876588460566454,0.3084167947084338,6.617459197211613,-1.8508641765259148,0.009032305265860182,0.06976819658390222,-0.13988804294271506,0.002716716545283557,-0.2714816350149509,0.025862260877159555,0.029407207612757072,-0.0923323486717809,-0.26814280091478376,-0.11639932238537377
29,4.666666666666667,noise,0,0.3247385927302679,0.200073151085809,-0.8189321462629455,0.28465839284294975,5.964147061942968,-2.042151517309581,0.02711592988173906,0.06292354116543486,-0.0877034145510074,-0.010511187308832687,-0.2270908122409442,0.03305410619292663,0.09937929952103422,-0.1342576033268125,-0.20807731023517884,-0.11644438902169632
30,5.0,noise,0,0.3160898240563276,0.19582529939157134,-0.7362080250803624,0.2600958643349081,4.603680766789619,-2.1761800693413726,0.04449228839413058,0.05690331956423737,-0.031159620500751023,-0.042138531671526265,-0.17974266220874074,0.040089476907711176,0.1695346304057234,-0.17570202642275362,-0.14296791153547925,-0.10731785251717728
31,5.333333333333333,noise,0,0.3007002030891562,0.19431372257343918,-0.6346469521145272,0.23165988193745632,2.804461372601628,-2.0686225527637507,0.06012829882393518,0.051690876629170754,0.021889392286620395,-0.08370541099042918,-0.12734028708400763,0.04659278644046218,0.23259492487812425,-0.20912289826311298,-0.08241910448514314,-0.08884035122289799
32,5.666666666666667,noise,0,0.2861300697238131,0.1964387326549219,-0.5092120320895765,0.19376835490390493,0.8988963044559943,-1.605204934669051,0.07301624724278168,0.046371264795112846,0.06274965081426702,-0.12349218047497133,-0.06690723343230569,0.052214835314166354,0.28095083681943867,-0.22656668820260906,-0.03559603847505925,-0.06537520057246624
33,6.0,noise,0,0.2825496552657842,0.20144341540891292,-0.3628184771479975,0.1459431135015951,-0.739713348355443,-0.8349770879975478,0.08208055556228398,0.03947331017194815,0.08431506850672538,-0.15050399570012327,0.004205151478290239,0.05680701213317522,0.30672159045524255,-0.21887347789761696,-0.00888030805009733,-0.04452810608743606
34,6.333333333333333,noise,0,0.29914084080119946,0.2068005676153917,-0.20684125488596233,0.09420765074000544,-1.7289494228131679,0.02110796705125978,0.08649137557762286,0.029731512266436767,0.08329938539400744,-0.15724610519076426,0.08692783173668554,0.0605504930772122,0.30562032218747986,-0.17992903356810547,-0.0033110656904920535,-0.034056636298143636
35,6.666666666666667,noise,0,0.33865429298663113,0.20920915779317856,-0.05391828068778543,0.04534102755124867,-1.8034760549312148,0.678534376634787,0.0866397103623922,0.016866686290669064,0.06291242394747883,-0.14191278511315952,0.17937774563866038,0.06377512178385966,0.2816234685501572,-0.1115144571843268,-0.01389976460083192,-0.03594885058189651
36,7.0,noise,0,0.3931801163662119,0.20633818790922048,0.08809348703416926,0.0008751114550090711,-0.9524919098352568,0.9442018488772104,0.08520373941790185,0.0019826078645029644,0.03448431915694644,-0.10941505559652429,0.27621227836502804,0.0667903606369352,0.24814043900711694,-0.024571097857579695,-0.0318681424462789,-0.04136295441237004
37,7.333333333333333,noise,0,0.4473702190607695,0.1978243226699558,0.21471556209099388,-0.04273578971890359,0.5682702717083258,0.7968914684759694,0.08677061943072821,-0.012702522124684697,0.014712301904765376,-0.06982148706716011,0.36874898223360314,0.06995903337167028,0.22322074379907256,0.06377231527910275,-0.04970042543929966,-0.032133388658386046
38,7.666666666666667,noise,0,0.4894765592007018,0.18462815424062307,0.3194834886106725,-0.08777690628335823,2.346140503630303,0.3467156600513637,0.09549291438855843,-0.024779297371801557,0.018129696957736578,-0.03452266866466637,0.44658573152623754,0.07370647512655108,0.2200508541427478,0.13701834087060308,-0.06625098583200272,0.010102778315456388
39,8.0,noise,0,0.5190791291614744,0.16792869534811808,0.3924803579368393,-0.12927729227673276,3.9405252690748727,-0.2643433508796586,0.11258453163414588,-0.03275054010188429,0.049765509310242616,-0.012219136192882304,0.5006169544954533,0.07829606204636315,0.23913768708665156,0.18693941657886023,-0.08704055024845644,0.09283182670858216
40,8.333333333333334,noise,0,0.5432146806432419,0.14893369148822486,0.42499699211391495,-0.15591693197514006,4.980399974907317,-0.9327872722422459,0.13574877324928436,-0.03661987228268353,0.10341128412463414,-0.00620630888899558,0.525751447771114,0.08365215872362043,0.2683409287481693,0.21683360156252013,-0.11886046046393281,0.20753894569354744
41,8.666666666666666,noise,0,0.5678314530003985,0.12904223569923962,0.4152007685459342,-0.15697117757946752,5.224780213643111,-1.5850135802489804,0.16040780817310563,-0.03766575420303905,0.165473829995452,-0.013443545859616235,0.5216295981875307,0.08936421598018218,0.28946592578791863,0.23873616044044138,-0.16447167446511735,0.33397655885262695
42,9.0,noise,0,0.594441619367413,0.10937804654531107,0.36949466977016465,-0.12884538450069125,4.585182357638734,-2.1156748894565047,0.18119183825110846,-0.03770093639500722,0.22041746814578284,-0.025991441005912937,0.49143039274972916,0.09465399530042186,0.2858482085604294,0.2668951833186657,-0.22268043752229644,0.45029855356639714
43,9.333333333333334,noise,0,0.6218188217150478,0.09013116410739834,0.29928032389383513,-0.07720481311892974,3.130702050041143,-2.366497497949797,0.19300109791944192,-0.03830212091502459,0.2549143190747098,-0.03454536799816302,0.440167578689499,0.09827728522424033,0.24794103791648847,0.31044036688288684,-0.2919806965330097,0.5420890811809674
44,9.666666666666666,noise,0,0.647991947697992,0.07058248533688753,0.21647023878242103,-0.015318602612153218,1.0837579176459382,-2.1927746087151947,0.1918956076774043,-0.040319715083878806,0.2601439613278425,-0.032069467869514943,0.37332743468987023,0.09875992740913776,0.1756893388648945,0.3692571110098243,-0.3720889590390614,0.6047614267347883
45,10.0,noise,0,0.6708721279864657,0.049806360761944224,0.13121687495745285,0.039505066832854714,-1.210539972320958,-1.560877052281156,0.17580879974276234,-0.04375002002747866,0.23270005780262085,-0.015877115024606783,0.2957069542242674,0.09512740706155906,0.07666609706124018,0.4360985016651273,-0.46126174952416055,0.6389065301769495
46,10.333333333333334,noise,0,0.6883896823509749,0.027415819472886255,0.052585321098827936,0.07048265048994025,-3.3405473274325908,-0.5985238427980398,0.14479330141632313,-0.047880473550017046,0.1748864716415247,0.01157845734092016,0.21050556753075694,0.08750311262165142,-0.03797685660962595,0.5016521002226094,-0.5532205758362088,0.644564533942164
47,10.666666666666666,noise,0,0.6988452669779545,0.003886729129284872,-0.011134185715669096,0.06696543817185115,-4.90276151679646,0.43656157396651457,0.10090601680731362,-0.05157395946192441,0.0943950849323134,0.043141742832224474,0.11931123071216952,0.07695346408047249,-0.1559263571033346,0.5565184558712927,-0.6381998210993233,0.620832019515969
48,11.0,noise,0,0.7013485628915357,-0.01955246706975765,-0.05583932446931748,0.02968254973226776,-5.591522872177761,1.248925036058398,0.04803911204804808,-0.053598570940243485,0.002257344870144369,0.06987519530080205,0.023126185815128764,0.06490797380552682,-0.26450351653752796,0.5905007892765297,-0.7072551987425272,0.569502652581888
49,11.333333333333334,noise,0,0.6960618144791856,-0.04124510526191895,-0.08572623175995331,-0.0284138630935305,-5.27006418398271,1.5943605585304783,-0.00839387018361519,-0.05292069193991414,-0.09051173150294176,0.08546996131684172,-0.07630917623822865,0.05281439962564786,-0.3526234331276048,0.5943460912524074,-0.7556934566278767,0.4973092817852658
50,11.666666666666666,noise,0,0.6842008264049082,-0.05941491989327706,-0.11152783175122456,-0.08777472108288545,-3.9821818078612963,1.3239238900370773,-0.062187191484050774,-0.04892470467058055,-0.17485669033015763,0.08812364526143644,-0.17551201604461186,0.04196656225688822,-0.4138262660342258,0.5645333221102568,-0.7842369335282429,0.4161060852499007
51,12.0,noise,0,0.6677979919173683,-0.07236582607073673,-0.14318751721482767,-0.1308318525966468,-1.9170016581779763,0.4093576847302835,-0.10746806113546678,-0.04158639295160688,-0.24340708655443166,0.07882448157304602,-0.2687821236480268,0.03314101930300107,-0.44743409575373827,0.5061256887759475,-0.7986351461289911,0.3423057775385233
52,12.333333333333334,noise,0,0.6493190250625959,-0.07868346721736312,-0.1842843466566162,-0.14801224801406318,0.6243375439012692,-1.0186756016546084,-0.13987412430637386,-0.031533936886866384,-0.2905691091954064,0.05994709119852947,-0.3486920841162522,0.02633115236677267,-0.45622518215206564,0.42984399685064345,-0.8071362775171196,0.293276549126793
53,12.666666666666666,noise,0,0.6313619379087254,-0.07756443431101237,-0.23228495461715906,-0.1388565880969514,3.247167362182277,-2.6558615622707755,-0.15741889898264888,-0.01984792652862592,-0.31445294137372526,0.03637910481627652,-0.4079063471721218,0.021062254368147584,-0.4430776824453393,0.3462476830875687,-0.8159909990529838,0.27993170708701326
54,13.0,noise,0,0.6164702437920376,-0.06917311295368019,-0.282446783606156,-0.10950532921271325,5.496662974095966,-4.092603582388795,-0.16092298324953105,-0.007648453324215439,-0.318669158216539,0.01625104089653602,-0.4417184614755288,0.016985078365205793,-0.4109611717826684,0.26411025915948877,-0.8259272830570299,0.30052933777729973
55,13.333333333333334,noise,0,0.6069074849973349,-0.05476754109490248,-0.33189538139520525,-0.0688578053661845,6.934939185876382,-4.959136897043435,-0.1538367944896,0.0042486166774773695,-0.3115560829051953,0.008375470336334808,-0.44986837627143417,0.0141043181644165,-0.36579446144905353,0.1934051269822772,-0.8322563864480015,0.3411304263307506
56,13.666666666666666,noise,0,0.6043749709232933,-0.03647166927822706,-0.3817016994079752,-0.025375275415306018,7.2814773053636,-5.079412736268702,-0.1411916441348757,0.01539745570086661,-0.30277482695628344,0.017718980258273738,-0.4367070686989404,0.012638847755925381,-0.31671555484253844,0.14506118791591288,-0.8283250465295213,0.38290535519077457
57,14.0,noise,0,0.6097861761427384,-0.016826784768952635,-0.43597259383038145,0.014188125951998115,6.580951378523463,-4.557237643098316,-0.12788517382306971,0.025598022901008186,-0.2991200129226746,0.04231695903242403,-0.4098944125986039,0.012926981651589826,-0.27219175136855395,0.12496041711161987,-0.8099830992146603,0.4117166222468591
58,14.333333333333334,noise,0,0.6232116170173456,0.0016735837761299517,-0.4979760789736373,0.04410817056163795,5.252691982687878,-3.7339854551560037,-0.11695458271754315,0.0348304796548022,-0.30164362801532635,0.07382766296128222,-0.37814865877204545,0.01547028167291416,-0.23623196423927428,0.12927546269801066,-0.7786374998392648,0.42465026580052656
59,14.666666666666666,noise,0,0.6439914735612778,0.01693122270813211,-0.5655603591181801,0.0587866470813311,3.9107207607126346,-3.0207887233383666,-0.10863558105172641,0.04331743388467066,-0.30564101091747004,0.10147765411383686,-0.3487296012160696,0.020892754026177705,-0.2076894282815167,0.14596213275976286,-0.7410798868042445,0.42977943728185763
60,15.0,noise,0,0.6709338581531935,0.02739434301955091,-0.6305497250296067,0.05417140219496643,3.0565812116584157,-2.700973133649979,-0.10082656727407151,0.05151705277575211,-0.30363428279588045,0.1170062127079438,-0.3256886520998402,0.02970430617628026,-0.18210380497116976,0.16018589460159705,-0.705411875669,0.438472231141845
61,15.333333333333334,noise,0,0.7025745319120308,0.03204158764341798,-0.6841426437542908,0.03169354868528901,2.8581985028757337,-2.8171994202289223,-0.09066948478809267,0.05987917488954347,-0.2895653717248215,0.11790820638970628,-0.30941305959719895,0.04199786258407141,-0.1556210552843657,0.16162984738058891,-0.6755185040396215,0.4555710190951109
62,15.666666666666666,noise,0,0.7373874643751377,0.03033425898646031,-0.7235895228478282,0.0009780587002947818,3.1306162123931522,-3.1937527186144976,-0.07617176031330418,0.06849235254619647,-0.2617123376091321,0.10767068178097644,-0.29719251565700666,0.057240140037985686,-0.1300390035251759,0.15229580408024407,-0.6491196118430216,0.47625476403941
63,16.0,noise,0,0.7737777398143663,0.022211457314244912,-0.7529503498171706,-0.022552026429220013,3.4925772872711534,-3.5675279685137578,-0.057072470890915536,0.07692572607194308,-0.2228474323007136,0.09318377827773863,-0.2843983199854741,0.07418251934296839,-0.11439921858767171,0.14853959985576867,-0.6211388606926942,0.4916045355922112
64,16.333333333333332,noise,0,0.809928306433572,0.008083700095647283,-0.7769321781310601,-0.024672218188960815,3.6000513716136306,-3.747813833287261,-0.034870047868633534,0.08437900208288808,-0.1781689833534564,0.0808405371514188,-0.26600306717415295,0.09093544942743263,-0.1192503067688554,0.17161694373002603,-0.5878866047339335,0.49494103824778
65,16.666666666666668,noise,0,0.8437340288356638,-0.011219665344142465,-0.7950250827097339,0.00029387667561504106,3.335509930683013,-3.7108095350467045,-0.012243740480910974,0.08998295280915035,-0.13291853453798352,0.07364051394991594,-0.23817263331502286,0.10539113044391221,-0.14739975158042667,0.23217108924253468,-0.5474107638725528,0.4821889164299779
66,17.0,noise,0,0.872964785361878,-0.03452190301736787,-0.8019382331890396,0.04606257649461719,2.8256321687903725,-3.5664256441409226,0.008003508591131865,0.09310443674189478,-0.09086722905287939,0.07067967813836103,-0.1993526310863546,0.11598115576702468,-0.1894685036729347,0.3215731657968242,-0.4974045518054235,0.449472657918814
67,17.333333333333332,noise,0,0.8956202064319245,-0.060375903876241185,-0.7919994162729883,0.09685382088635792,2.258643773551164,-3.426263920868258,0.02427158168242465,0.09361463617368428,-0.0537212619546109,0.06883180411843277,-0.15020029420809958,0.12230781197752125,-0.2274593996124649,0.4159864297860195,-0.4354987561593934,0.39496497726164564
68,17.666666666666668,noise,0,0.9103264931695931,-0.0872088537789027,-0.7623817876389312,0.1343128932331432,1.6820783244140598,-3.300165218104763,0.03718738652837759,0.09203561298884398,-0.021429040604955547,0.06572291452495946,-0.09243578647300839,0.12521194721860343,-0.24246889009683728,0.4879208382875256,-0.36319965314402425,0.32534277440751824
69,18.0,noise,0,0.916657682444738,-0.11355617488224724,-0.7135601512175955,0.14469566203232287,0.9927271728726245,-3.112526795121729,0.04971882520794571,0.0894468412994926,0.007042127423461736,0.06222849676071511,-0.027451379546253714,0.12635434464984077,-0.2219291878784994,0.5180401401855351,-0.28882507315561085,0.25915827872446
70,18.333333333333332,noise,0,0.9152714791956459,-0.13829116103287928,-0.6482746439870545,0.1227376515929576,0.0896210714271459,-2.789022321853111,0.06616973338692521,0.08713014560954913,0.03349795693485057,0.06213750168262512,0.044403425690637745,0.12761512521231866,-0.16395536485460002,0.5025579766110132,-0.22507790829699287,0.22112589764885135
71,18.666666666666668,noise,0,0.9077392479308751,-0.1607390867274823,-0.5710214913731531,0.07216467969102466,-1.0011950331657538,-2.3173935213336407,0.0904870753317989,0.08607873787530346,0.06104861328780076,0.06882901054713725,0.12354732679402944,0.1304571620642742,-0.07705648804142284,0.4529621433324194,-0.1833627332644864,0.23159557626859487
72,19.0,noise,0,0.8960687624476926,-0.18063539370250772,-0.4884401753569758,0.004257350801572671,-2.119153000367991,-1.7518232292332934,0.1247738615409403,0.08661000796115621,0.09423759582377367,0.08190805575767501,0.21030994338295958,0.1354474452659843,0.024522934974515256,0.3888662039293903,-0.16905787760803587,0.29877146204436583
73,19.333333333333332,noise,0,0.8820707117433275,-0.19796477996129172,-0.4078292285288231,-0.06619979986543167,-3.02800787429938,-1.184176188303619,0.1686455330532263,0.08831478896738033,0.13785035560120767,0.09665392721581349,0.3040897803266882,0.14220463668940617,0.12698547309181035,0.32868087775724003,-0.17807560082875143,0.414453200150608
74,19.666666666666668,noise,0,0.8668132572181689,-0.21278863390900332,-0.3323434759817357,-0.12796200466802107,-3.4940832790158867,-0.7144833064672796,0.21946103977252263,0.0903758402386186,0.19471086738754245,0.10657449819034492,0.40291088287170174,0.14969969950255543,0.22175467525309245,0.282411103024445,-0.19501505615679451,0.5526527939083982
75,20.0,noise,0,0.8504003015527554,-0.22518343243594605,-0.25742249210954987,-0.1789735039417167,-3.3817299696671266,-0.43381390084930893,0.27316062129060426,0.09202168036758078,0.26371179580874293,0.10724178858843651,0.5034141773676951,0.1566662797022005,0.3066285396561986,0.25003447620210617,-0.19651212685867392,0.6753797426567798
76,-5.0,Inhale,1,0.18357355170845735,-0.013431148711044286,-0.2072235656200238,0.28690332868029544,-0.31128251158924025,2.0662079009701046,0.26900265335568846,0.073581653925591,0.2209101026162109,0.18941630350224098,0.3140354265233545,0.08048149718718875,0.22202990559586538,0.11222354884980279,0.3454349505939916,0.18924814721346145
77,-4.666666666666667,Inhale,1,0.16048675247270283,-0.03330315684002677,-0.2756154450670136,0.2606188681975895,-0.5364224218300139,1.7196315439349208,0.21341775233057356,0.061222913582471,0.15367053793804203,0.1636530598118997,0.21714441868016812,0.06447690981530321,0.2025633597068205,0.02540659322159474,0.2358364427429871,0.19755472716060285
78,-4.333333333333333,Inhale,1,0.1287182273215958,-0.048127770071472356,-0.3187700096616785,0.20950325383091764,-0.6627102252563517,1.2316203714764289,0.15746007647429827,0.049443735294944474,0.08461474513135062,0.13765087239713542,0.1166693249441984,0.049085059925192236,0.15619610336153855,-0.03132451311387166,0.14146963499432627,0.1692457037161762
79,-4.0,Inhale,1,0.0897255177789785,-0.05549905406590835,-0.3314079023805215,0.1480846225970724,-0.7155298888809386,0.6964360120390878,0.10215692833627961,0.0390674041409426,0.01756742744828634,0.10910098788817228,0.016791855152896846,0.03488269684650155,0.07830796333398317,-0.04086754977663876,0.06690773069203071,0.10490713203952184
80,-3.6666666666666665,Inhale,1,0.04732043745241708,-0.054633580294419434,-0.3109065469517852,0.09209733519931913,-0.649788884311692,0.19208054973294714,0.047946251025372644,0.03041173130417221,-0.04485701961967909,0.07754912174013316,-0.07645676645219508,0.021658684813901638,-0.022053571610179578,-0.00667692825017677,0.005721713103566713,0.021645960098088713
81,-3.3333333333333335,Inhale,1,0.007050488433787764,-0.046864456253517414,-0.2602561631986719,0.05329260095332587,-0.4015331511182271,-0.2310706051764091,-0.004805862537544392,0.02319220553970137,-0.1003899612494588,0.04466909973283425,-0.1554374203565571,0.00880526731040372,-0.12362176098767745,0.04867797130410972,-0.05370728026764521,-0.053300758735979746
82,-3.0,Inhale,1,-0.02591760504601365,-0.03507017617430033,-0.1874794492996576,0.03475312737421363,0.03714284033941183,-0.5607549322693697,-0.05424000709742701,0.01662066890619148,-0.14511698271679105,0.012710907516357553,-0.21199698984200255,-0.004321684105210667,-0.1998852096876912,0.09405628832565091,-0.11724108914489008,-0.09639430603762919
83,-2.6666666666666665,Inhale,1,-0.049159643723397144,-0.02211622940720513,-0.10062968127156753,0.028960957534140585,0.5881173241039005,-0.8227607021586942,-0.09553236277500211,0.009743792499947794,-0.17228616493168875,-0.01715085285474027,-0.2389988096719287,-0.017935257645054176,-0.23028050149286747,0.10591955728515609,-0.1781696006280155,-0.09922078810357156
84,-2.3333333333333335,Inhale,1,-0.06354364310574438,-0.009316752964743505,-0.004679750954721704,0.02155610033766691,1.1309126306336141,-1.0646441685358712,-0.12179584089456816,0.0018612095214888271,-0.1743247791457709,-0.04494440607506832,-0.23221127159346247,-0.03112897290175402,-0.2090495686238211,0.07949349261226141,-0.21993512765063122,-0.07091516138760147
85,-2.0,Inhale,1,-0.07151621914247523,0.003836305127563377,0.0963707443907066,-0.0008677905426707795,1.5609144744560415,-1.3148068186061352,-0.12780955721071724,-0.007341071462306611,-0.14762281344696357,-0.07053307248608601,-0.1921073043800024,-0.04170616845523575,-0.14581247952981366,0.026910806338134634,-0.22545531311170844,-0.03234394354086088
86,-1.6666666666666667,Inhale,1,-0.07494282736550889,0.018431932817650865,0.19590327043723835,-0.04413331692104311,1.7843588090584777,-1.5248347901858903,-0.11402922463027358,-0.018027817364856424,-0.09607500105641766,-0.09245318594441942,-0.12454160721588496,-0.04710776341226997,-0.06022807960444689,-0.03252428403887756,-0.1867405051691768,-0.006098380325590354
87,-1.3333333333333333,Inhale,1,-0.07445508152157854,0.03451659691670409,0.2840326032851223,-0.10464747707380477,1.6714028139545591,-1.550018413422296,-0.08764952109415552,-0.030349075158547803,-0.03016248664998576,-0.10826584535330493,-0.03977005680253071,-0.04579142281854218,0.02379087471792924,-0.08019640842711652,-0.11022238459416564,-0.006358998611734146
88,-1.0,Inhale,1,-0.07058192876391665,0.05050224004148397,0.3494965971410947,-0.17214457411812342,1.0755487349697703,-1.2155748336355614,-0.05981651311990306,-0.04407631279571117,0.037283937129111946,-0.1155508685571459,0.04967897942054964,-0.03799381165430018,0.08365573952868065,-0.10261036829222125,-0.01579360724991365,-0.03283527714209947
89,-0.6666666666666666,Inhale,1,-0.06516706198758423,0.06388023750081635,0.3814084158250743,-0.23417660407609867,-0.04536990750288031,-0.4312858228428429,-0.040936357707754834,-0.05803386139883937,0.09530728765101593,-0.11240968384232053,0.13125990625898065,-0.025529433794075025,0.10458060244245802,-0.09560984095357991,0.0695685956259693,-0.07172060844012693
90,-0.3333333333333333,Inhale,1,-0.061129595630241104,0.07237884074941739,0.3714093607882535,-0.2795614787515052,-1.5226702733718651,0.7365305031263082,-0.036742285444766494,-0.06998686546379698,0.13758754265360293,-0.09825689966610159,0.1942717395901798,-0.010989803459195773,0.08465929696405143,-0.06724259656377118,0.12059709530654854,-0.10302724102742354
91,0.0,Inhale,1,-0.060461368881479606,0.07481617162900157,0.31834752253815196,-0.300238953221295,-3.003090363654566,2.0732442055532734,-0.04662612901009997,-0.0773303110713925,0.16389362824913498,-0.07518553780958642,0.231668575744236,0.003114202347146688,0.035147325885170375,-0.03563576852045653,0.12172874475672633,-0.11038620687523373
92,0.3333333333333333,Inhale,1,-0.06237290907426094,0.07149452136786003,0.23282215114051802,-0.29293009457666697,-4.079173524065897,3.2690533909078114,-0.0646476113094237,-0.07822928488138652,0.179325476054223,-0.047911090157413364,0.2417080985174778,0.014912577641930828,-0.0249250290693179,-0.021635360294014895,0.07137491550969342,-0.08837781440481034
93,0.6666666666666666,Inhale,1,-0.06309951131728161,0.06411360946148766,0.13533357493348777,-0.2607578575879891,-4.4196034947455,3.993950669785839,-0.08276000696239555,-0.07240460950732139,0.1904669958190571,-0.02122001971502052,0.2282300989442902,0.023374465831406017,-0.07793532302118489,-0.03886665208899658,-0.019590496124836182,-0.043396050525515394
94,1.0,Inhale,1,-0.057347343680685524,0.0552340517587363,0.04664812503442716,-0.21278602345395864,-3.8547671090801225,3.9997045220940173,-0.09464881288556201,-0.061053348489883336,0.2002838955438,0.003149316319985204,0.19885287081497793,0.028173214522330986,-0.11580392475375012,-0.08581831492223885,-0.13417662619192983,0.012663277194476128
95,1.3333333333333333,Inhale,1,-0.040663867554973795,0.04753953373688808,-0.02288776228645611,-0.160814798363667,-2.4281372544058577,3.2186835928532544,-0.09810247342746149,-0.04608918586115771,0.205611530725861,0.027254035897266667,0.1619099104542504,0.02928726031697424,-0.14131300057532442,-0.14582342845462545,-0.25568945054927733,0.07059591352554749
96,1.6666666666666667,Inhale,1,-0.011812284741576987,0.043187374396393904,-0.07651492240220012,-0.11539777390733942,-0.4092426134635173,1.8032164313832684,-0.09483974946497085,-0.02927316939745807,0.1995739620443812,0.05409485129337944,0.12358650425773421,0.026685991083831836,-0.1623510332534217,-0.19585217286818152,-0.3696012423660933,0.12603520683832425
97,2.0,Inhale,1,0.026031214812641562,0.04337410221735932,-0.12415340648628778,-0.08291640966393553,1.7536989653676403,0.08292314575905416,-0.0884753333624483,-0.01174377950132516,0.17711742303685057,0.08329400456268043,0.08643247162144592,0.020518016158714965,-0.18489334277164804,-0.21822944447205964,-0.462180584300181,0.1748161622873347
98,2.3333333333333335,Inhale,1,0.06612219805865416,0.04816901647263344,-0.17110837723669747,-0.0647366747404857,3.542700063234406,-1.5367826183029174,-0.08227793794551831,0.005878522479410606,0.13918275553958742,0.1092808614842289,0.04983919981246681,0.011677837635853361,-0.20915207499107963,-0.20945461470747503,-0.5213587649667413,0.20914679798599184
99,2.6666666666666665,Inhale,1,0.10061903290073493,0.056723845669282916,-0.212064010041126,-0.059127371605896,4.516777698532086,-2.6871045595591747,-0.07797519579316785,0.02305138320907116,0.09252507945507486,0.12378543612183356,0.011936716273504119,0.002075001158426171,-0.22981732044742392,-0.1821679586797363,-0.5408466104423545,0.21914354207487086
100,3.0,Inhale,1,0.12320961216962499,0.06786443732468461,-0.23542806075428283,-0.06463740561521626,4.451221645837318,-3.120612403865919,-0.07583833384404468,0.03898545458690858,0.045790347061313116,0.12062512280489121,-0.02857312541203545,-0.0059255909388653254,-0.2405551540465503,-0.1571073573230803,-0.5226874538658699,0.19701981900200305
101,3.3333333333333335,Inhale,1,0.1307305400434643,0.08075701387826023,-0.2336492009391313,-0.08184919959407727,3.3969504979248093,-2.7596429526556414,-0.07554114605259085,0.052715520043322896,0.004934373054812442,0.09907109080633261,-0.0716508188372627,-0.010643908498023675,-0.2404805758407412,-0.14842052101358233,-0.47571920126437417,0.14151956771966198
102,3.6666666666666665,Inhale,1,0.12364272646827573,0.09518294247023265,-0.21088918095401094,-0.11183501230622696,1.6303367680756418,-1.714548050469264,-0.07711271427028088,0.06345449117468546,-0.029255997010794507,0.06381796099473805,-0.1161880446468198,-0.011911288640392436,-0.23699911589353317,-0.15360922877209224,-0.4126098898247691,0.0621430337267435
103,4.0,Inhale,1,0.10572700320896036,0.11127123158457067,-0.1833126491234903,-0.15235663032389515,-0.43801957542960307,-0.271613562459301,-0.08135876545992737,0.07091636882661076,-0.06085571658612671,0.022702898788218965,-0.1608919618315781,-0.010918643969290598,-0.24132231328462717,-0.15704102640928944,-0.347396472170916,-0.02044738877185757
104,4.333333333333333,Inhale,1,0.08312067169115567,0.1290535403910279,-0.17343128604488542,-0.19460278732287398,-2.340608690214202,1.1733337369667125,-0.089293035415678,0.07545875208775357,-0.09612213968425713,-0.01593720039289658,-0.2052711632309942,-0.009268274114502567,-0.25971562866620745,-0.1440927269137417,-0.2921181497812286,-0.08212621120128726
105,4.666666666666667,Inhale,1,0.0627148872573516,0.1482747362864662,-0.2020595125407564,-0.22404272297055752,-3.6485588882025746,2.251205972386545,-0.10077830513286339,0.0780765474455513,-0.13921907025151625,-0.04566775562070433,-0.2500493361487424,-0.008031752793673378,-0.2880845663155612,-0.11356103967279767,-0.25230834184756096,-0.10804260906593482
106,5.0,Inhale,1,0.050339375921088836,0.1684817031416028,-0.27950364122846905,-0.22713805283327917,-4.096266390540605,2.7598176210525986,-0.11354076551686698,0.08022526343433757,-0.18872380933044267,-0.06358619724993957,-0.29661267783547113,-0.007543186566765931,-0.3143140596141145,-0.0787584254809604,-0.22465715995249882,-0.10064302855856772
107,5.333333333333333,Inhale,1,0.04939974988345768,0.1891389110637908,-0.39815217671674813,-0.20042216754097586,-3.6723242688684654,2.704158790673471,-0.12372765034496355,0.08339507741689972,-0.2378576689846413,-0.07022809296843845,-0.34586447018222044,-0.007885277442810517,-0.32521765179720735,-0.05908048335616247,-0.1997532819734988,-0.07665892085936209
108,5.666666666666667,Inhale,1,0.06045473668428956,0.20964945452509928,-0.5318264372441626,-0.15468945263168038,-2.6180725513136536,2.2238184079217627,-0.12767296848125034,0.08852823978052231,-0.2783582141891738,-0.0678398067244129,-0.3971724647848667,-0.009285915593689893,-0.3121923950814091,-0.07019640801139873,-0.16878962844875883,-0.05575128325195076
109,6.0,Inhale,1,0.08174856546820197,0.22935470440451478,-0.6456008470562951,-0.10960881533837137,-1.327346047436526,1.4855229731584996,-0.12337952705947618,0.09560769663005217,-0.304871659672321,-0.0581882642327497,-0.44794691376612433,-0.011896209455448378,-0.2741775745244044,-0.11706228546241514,-0.13042483744634098,-0.04818437422537212
110,6.333333333333333,Inhale,1,0.11019236048171055,0.24757353484719966,-0.7120378901402195,-0.08158657181592235,-0.18984526428584245,0.6157322150289007,-0.11076602087071667,0.10372316291637398,-0.3168761526201293,-0.04124043194490495,-0.4942086914729879,-0.01532801966976617,-0.2198112144490327,-0.1892670213738968,-0.093815508323424,-0.04812756146315084
111,6.666666666666667,Inhale,1,0.14226452800498862,0.26369551849434936,-0.7230266330074815,-0.07409108728535412,0.5441647455667744,-0.2958155642483575,-0.09075040422183744,0.11160248666812746,-0.31713750091488524,-0.015834406642847132,-0.5318992265650331,-0.018595412890660974,-0.1670735694655337,-0.261059393588925,-0.07485890218278814,-0.03669799394828866
112,7.0,Inhale,1,0.17456125302363273,0.2773381523403134,-0.6897295894664843,-0.07771951469573195,0.8057156738248137,-1.1427545204712044,-0.06404978437476042,0.11827988068358943,-0.3083909213414006,0.017821852803779188,-0.5583851998644289,-0.020483736029861956,-0.1363561378826133,-0.3011772688264078,-0.08609914098014408,0.0052859891350002285
113,7.333333333333333,Inhale,1,0.20396716207804252,0.288472798584535,-0.6342203783092057,-0.07794779078586786,0.6542860439635384,-1.7655932714820044,-0.030881507841810152,0.12352093091391741,-0.29137973906916337,0.05592248478905689,-0.5738168797288307,-0.02000414993775638,-0.13934214927261834,-0.2893948189011815,-0.12598007634255726,0.08152784831109888
114,7.666666666666667,Inhale,1,0.22777909879058947,0.2973648517271818,-0.580311047047356,-0.06328000032916288,0.2130913871509109,-1.9928943097136427,0.008294743337414624,0.12778349213428994,-0.2656424455573093,0.09138375818644669,-0.5815271103238063,-0.016870925694666687,-0.17250678061780267,-0.22691023486913206,-0.17522495592134107,0.17267701044594377
115,8.0,Inhale,1,0.24402635932120184,0.30429693790483925,-0.5463450076392677,-0.029677655932330172,-0.3415039018097966,-1.7487779852314858,0.05193770987128343,0.13174435156967665,-0.23184150540521942,0.116823190809143,-0.5867327857387754,-0.011862767677004898,-0.21998267335305066,-0.1332618000104987,-0.20407629275919703,0.2436515338920217
116,8.333333333333334,Inhale,1,0.25171575045507055,0.3092233820880117,-0.5409006985649739,0.018975617147702493,-0.7765249223533395,-1.1321906111677802,0.09720340966970575,0.13572297131895625,-0.19322780419288058,0.1277660141316427,-0.5941638538133331,-0.006538321910243405,-0.26190719529143486,-0.03573636063031274,-0.1861929675958895,0.2607302966552813
117,8.666666666666666,Inhale,1,0.2507641966421734,0.31164103622963146,-0.5628218826419137,0.07338578875421395,-0.8598672416643407,-0.3841310403862058,0.14053479338739372,0.13944032795359418,-0.1544538884190439,0.12348505384320728,-0.6058645503818492,-0.0022475045360727153,-0.28172771648405825,0.03968122595691373,-0.11017962188858761,0.20664922300255614
118,9.0,Inhale,1,0.24172777191252257,0.3108383936209224,-0.6044191059204703,0.12269888139291839,-0.4767590361353077,0.2311911926169376,0.17875568942909711,0.14225360527176892,-0.1188471525292354,0.1059126605901677,-0.620136376721332,0.0007202637314099493,-0.26962871545575384,0.0729842675830568,0.01657777430206389,0.087073026286221
119,9.333333333333334,Inhale,1,0.22554043995550377,0.30629599159594983,-0.6546431945509567,0.1583130779125856,0.27087598881722813,0.5399202409575706,0.20991849388763498,0.14358269266350984,-0.08713471764029856,0.07920908597507192,-0.6321523882599236,0.003137064251545734,-0.22398453749907682,0.053689546786930345,0.1703900562062266,-0.07078327608268604
120,9.666666666666666,Inhale,1,0.2034801489155772,0.2978755066144498,-0.7011129720721587,0.17699262094714474,1.0709722746415475,0.5115673370889464,0.2334902299514682,0.14313194832660125,-0.05836135702282963,0.050180388641063285,-0.6358317742278885,0.006182142162266959,-0.15346323229398923,-0.013621773975389924,0.31712515023558197,-0.22560846657009762
121,10.0,Inhale,1,0.17737956963558604,0.2857094992939784,-0.7327429615017595,0.18216427630148235,1.553458672113938,0.2439233235513131,0.24996683636122707,0.14080301343296164,-0.031156648104753357,0.027017843590523893,-0.6259760448965629,0.010767367329716476,-0.07811145357537597,-0.10567917540759883,0.4207774430041656,-0.3352162817625312
122,10.333333333333334,Inhale,1,0.1498023987242392,0.26998187463058076,-0.7437089914681313,0.18221964585858086,1.5117224831142353,-0.10384723766594663,0.2601928978520653,0.13653510130074628,-0.0041865528160453845,0.015892641653302342,-0.599846502377023,0.01721953141159731,-0.024845361884034172,-0.18646648706835986,0.4545984890158312,-0.3729548819276309
123,10.666666666666666,Inhale,1,0.12383477378190129,0.25084031042156457,-0.7363773098265295,0.18616809386349356,1.0289077722029292,-0.39119460040586757,0.26488409312585004,0.13029721188336557,0.02360186073332163,0.018479122714168243,-0.5576774263298868,0.025317190235049813,-0.016628757998639908,-0.2230332679832206,0.4114882358500469,-0.33948340319246145
124,11.0,Inhale,1,0.10231710681708704,0.22853227488658173,-0.7200308359450877,0.19823875994875106,0.41512329633421363,-0.5478438924144992,0.26474068435580833,0.12222361095941676,0.052396080279873594,0.03276910573301914,-0.5021994122971607,0.034588196822731676,-0.06097529859437754,-0.201729987106539,0.3074157739616374,-0.2613766672852845
125,11.333333333333334,Inhale,1,0.08683302028860827,0.20361770553742933,-0.7050868489619603,0.2143288469388369,0.021037723091062853,-0.5810447528771711,0.2610251084437188,0.11279328417118743,0.08145378411651681,0.05566737585740239,-0.43767464137598,0.044755039770424374,-0.14501890590185557,-0.1345893624192315,0.1741283957639695,-0.17567048491804263
126,11.666666666666666,Inhale,1,0.07723372770034341,0.17701145957533657,-0.6971920225939067,0.22398936638758055,0.06548834210255569,-0.5537834460487752,0.2560955588891661,0.10295930677261747,0.11036322789925863,0.08436890725948487,-0.3686756877829876,0.055957514123640695,-0.24062832363608555,-0.05222600732410364,0.04425353248546348,-0.1089659135461176
127,12.0,Inhale,1,0.07221633499772814,0.1498231627888569,-0.6957848899964806,0.21756794507509192,0.5706818191832465,-0.5640477320330026,0.25339866714058606,0.09409192528518458,0.14051608882021152,0.11601535652544337,-0.2987258718275998,0.06845284504108891,-0.3172163148544251,0.0127830150618024,-0.062058615163486444,-0.06414396262912239
128,12.333333333333334,Inhale,1,0.07058295334328683,0.12326110443869132,-0.6959103098335198,0.19254821112068668,1.409582316069331,-0.7296938513764893,0.25679614828119474,0.08764595794904066,0.17498356695968187,0.14742816330506348,-0.2293881121828865,0.08216894143850745,-0.3545979459139635,0.041938461432766964,-0.14036443685210753,-0.023576609295690172
129,12.666666666666666,Inhale,1,0.07216829661139415,0.09876202688180376,-0.689374319158254,0.15444036004833417,2.3970762372024903,-1.149708566197621,0.26953218790958916,0.08465297702956455,0.21681007557253518,0.17569371938371375,-0.16040410748926087,0.09665230982357971,-0.34817950659919683,0.036238567006981304,-0.19550520098947094,0.03520754455603341
130,13.0,Inhale,1,0.07766003364739127,0.07803865447906028,-0.6651460524067445,0.11295704167853304,3.345630804346678,-1.832792266340106,0.2933401107839102,0.08527149355656678,0.2673825183040188,0.1985400989021963,-0.09063437108906529,0.11126822887651726,-0.3060740027881156,0.010767573553721273,-0.23378850492401282,0.12506892332736563
131,13.333333333333334,Inhale,1,0.08745438645995426,0.06259872290507223,-0.6116175617871079,0.07632796220900567,4.075929437659549,-2.6423693455668693,0.3280590653935504,0.08858462463037217,0.3258588528824972,0.21410806207405442,-0.01897997642787289,0.12526404033020067,-0.2437723714311324,-0.013431346595484962,-0.25915954454093143,0.24423745032607072
132,13.666666666666666,Inhale,1,0.10060635589583342,0.052876715077600105,-0.5210628759633955,0.04643523367267823,4.454785766781602,-3.330526749522677,0.37179932627586626,0.09274527949894545,0.3893062293096943,0.22132072076607087,0.055205516286447556,0.13780526036424903,-0.17898342351257443,-0.016573441069379316,-0.2720328170121481,0.37774491508148894
133,14.0,Inhale,1,0.11493974708047128,0.047761852399261784,-0.39396684778191055,0.017740765488971574,4.479709772769444,-3.666404041316725,0.42142098078720097,0.09549995374940416,0.4532461786025377,0.22119724339683086,0.13216017535586103,0.14818397942553227,-0.12511056882032978,0.011210478452686825,-0.2688266338200871,0.5006286276375341
134,14.333333333333334,Inhale,1,0.1282017592940358,0.04504845770580337,-0.24175625364017525,-0.01787592196642719,4.300313119509171,-3.5607766317196954,0.47304172063783495,0.09492575632169097,0.512724077687662,0.21744960131812852,0.21181232947424478,0.15592749326221117,-0.08579266419700902,0.0633377365214324,-0.24371358582479571,0.5840747290024011
135,14.666666666666666,Inhale,1,0.13914556848808912,0.04243823966045252,-0.0876415465572264,-0.06225500382337347,4.1120057718683,-3.0889179501228137,0.522469807786506,0.09001388987223645,0.5636645085390112,0.21527770621445788,0.29341851026699883,0.16059580261860443,-0.05672750815159432,0.12101537960637301,-0.1943066533009638,0.6064471135066419
136,15.0,Inhale,1,0.14782447447221445,0.03832053268653102,0.036673899797982516,-0.10483878148958854,4.017865014077914,-2.416209798928186,0.565704591580711,0.08089311091507886,0.6043168580006936,0.2191772290930065,0.3746652619259482,0.16165291980688917,-0.03412066725058554,0.16666297441812075,-0.12844468078096014,0.5645586950355579
137,15.333333333333334,Inhale,1,0.1552380742727897,0.031955265807325293,0.10092206023772979,-0.1257227322708059,3.977258523896524,-1.7045528011262214,0.5996102631542813,0.06879078753890902,0.6366692836554988,0.2308763337603385,0.45092016941028407,0.15874836961428976,-0.02038456641562179,0.19341289250736265,-0.06616038571262707,0.47747623881727125
138,15.666666666666666,Inhale,1,0.16255742304408344,0.023206140420076734,0.09007316891870926,-0.10706271158062912,3.8653795690325263,-1.0674260217008165,0.6224466273725018,0.055773261490881694,0.6662162561178601,0.24853640385544198,0.515373418899544,0.15210263727860343,-0.021077958857620798,0.2028446752056378,-0.033869627902019354,0.37982162034421707
139,16.0,Inhale,1,0.17007590838742004,0.012155586221307845,0.014299711425860081,-0.04493402355847275,3.5786657269349402,-0.5686445335049565,0.6338522444614686,0.04416591177459531,0.6984892885506618,0.268222303056618,0.560244853438607,0.1425919534798895,-0.037677058091069526,0.196761558633377,-0.05281159966240132,0.30678341962219646
140,16.333333333333332,Inhale,1,0.17642697674902952,-0.001101381161733778,-0.0914036228863929,0.04612346903106683,3.0888586013539463,-0.21527978673548762,0.6344933751954124,0.03577454596394365,0.7345826232032681,0.28640793418793714,0.5788663885193188,0.13153520829239876,-0.06415350265344415,0.17297096028787481,-0.1270810756608983,0.27735318939409453
141,16.666666666666668,Inhale,1,0.17871668491796178,-0.016340789998347365,-0.1791276802234206,0.1377948021438248,2.417500329841042,0.04970164095160768,0.6257686997989321,0.031297314532793136,0.7699178630492094,0.3008202064325911,0.5678532380846513,0.12032180567871611,-0.08982289848833942,0.12799001044687888,-0.23900461988012586,0.28645903845205517
142,17.0,Inhale,1,0.17377908889493338,-0.03285110118573305,-0.20703330373014978,0.19900576529083486,1.5922993880256866,0.3087463192085892,0.609458700592747,0.030239662348596034,0.7971317543853341,0.30940748101265825,0.5281941234735235,0.10995137599791018,-0.10534205419571625,0.06259351711400596,-0.35691716100801935,0.31249161836081035
143,17.333333333333332,Inhale,1,0.16016408872538498,-0.04899555339892056,-0.15633577111779332,0.20847840908137671,0.6423614306571808,0.6033243000431814,0.5871899907323078,0.03129757433406929,0.8099181795641105,0.30979675040757015,0.46494275063990936,0.10065075797309661,-0.10734104614774592,-0.014686129623084498,-0.4502712623423381,0.3338615972019773
144,17.666666666666668,Inhale,1,0.1396508315955616,-0.06195871541833589,-0.037170621123108545,0.1629393664893601,-0.37016276693140643,0.9115492703166683,0.5598321686286777,0.03289175334784832,0.804499793968952,0.3004029278840407,0.38575796684488806,0.09185765010964614,-0.09869734159895087,-0.08915210535224713,-0.5009357487619797,0.34136039783585587
145,18.0,Inhale,1,0.11690256762484759,-0.06820079646597245,0.11900470219684611,0.07655046132802255,-1.3260778836839922,1.1934771126971624,0.5271822542612167,0.033641079290942316,0.7789675191262626,0.28182141516532094,0.2985011572633011,0.08268707472064288,-0.08479656864984378,-0.14676543305396228,-0.5053615968273992,0.33903889033761375
146,18.333333333333332,Inhale,1,0.09722806550494231,-0.06481229028162436,0.2749777670250397,-0.02719980166817895,-2.0669464407116753,1.4389273965160787,0.48865938002710474,0.032789124623243654,0.7334253457632842,0.25671152665393154,0.20900216257514595,0.07253837969292613,-0.06923746238419817,-0.1816779017955076,-0.4705511281283146,0.33661961817668085
147,18.666666666666668,Inhale,1,0.08399351177499567,-0.050908750816787696,0.40250876563553556,-0.1252493494629885,-2.4388292401349956,1.6427904520896184,0.4449174902805074,0.030489894660520704,0.6714643903353276,0.22832927631708974,0.12033974937089373,0.06133358709366561,-0.05230411836705881,-0.1984723683409657,-0.40820577380714973,0.34098653270781293
148,19.0,Inhale,1,0.07741973236100107,-0.027929901201198485,0.48969934358432693,-0.20175331380793435,-2.3373111174765793,1.743068824963343,0.3988860565123475,0.027723222795235147,0.6001040315762001,0.19983772563729474,0.03353744191058885,0.04934741119481677,-0.03223168774841794,-0.207852402857635,-0.3294014202743196,0.35187088014832274
149,19.333333333333332,Inhale,1,0.07530396441307723,0.0012088343068705617,0.5401418377887708,-0.2508342918502737,-1.7490538517552894,1.6233246580510956,0.3552464801487672,0.025815610606054584,0.5270660965711882,0.17539547470941005,-0.051166309814697816,0.03700988244034417,-0.006687254619256107,-0.22025123588845696,-0.24170038362730595,0.3631107327885614
150,19.666666666666668,Inhale,1,0.07474646982063267,0.03319241889385492,0.5659019666395945,-0.2748580746514285,-0.7681280828219874,1.193580257213948,0.3188091194634729,0.025823727855678134,0.45790868000728346,0.1608628310415038,-0.13312012287510358,0.02484881925563958,0.026435732391624566,-0.24183118205809215,-0.14998496588381016,0.36763887632178865
151,20.0,Inhale,1,0.07360637717893753,0.06489536115277993,0.577319609737115,-0.27870157242061444,0.42676778725739745,0.47848561197902106,0.2927742881651539,0.028129440804634153,0.3957270996520872,0.16169968672802076,-0.21072878564974157,0.013471038887581322,0.06699904474996583,-0.2727235930800903,-0.05969279934209021,0.36202268933832527
152,-5.0,Exhale,2,-0.10527047757717536,-0.017246764333469815,0.3645940471183998,-0.1362831581762269,-3.4482350134381194,2.446194407998414,0.024159753514836527,-0.09531453507301271,0.13665188627377414,-0.07556891659298476,0.26499595648178886,0.00962655005535933,0.1808799780770379,0.11020956192029978,0.3813323411417207,-0.13171477046528648
153,-4.666666666666667,Exhale,2,-0.10599707982019604,-0.024627676239842185,0.2671054709113696,-0.10411092118754903,-3.7886649841177222,3.171091686876442,0.006047357861864678,-0.08948985969894759,0.14779340603860824,-0.048877846150591917,0.25151795690860124,0.01808843824483452,0.12786968412517094,0.09297827012531809,0.2903669295071911,-0.08673300658599156
154,-4.333333333333333,Exhale,2,-0.10024491218359996,-0.03350723394259354,0.17842002101230897,-0.05613908705351861,-3.2238285984523447,3.17684553918462,-0.005841448061301776,-0.07813859868150956,0.1576103057633511,-0.02450851011558619,0.222140728779289,0.022887186935759488,0.0900010823926057,0.04602660729207583,0.17578079944009745,-0.03067367886600004
155,-4.0,Exhale,2,-0.08356143605788822,-0.04120175196444177,0.10888413369142569,-0.004167861963226955,-1.7971987437780799,2.395824609943857,-0.009295108603201251,-0.06317443605278392,0.16293794094541214,-0.000403790538304725,0.18519776841856148,0.024001232730402743,0.06449200657103141,-0.013978506240310804,0.05426797508274996,0.027258957465071322
156,-3.6666666666666665,Exhale,2,-0.054709853244491416,-0.04555391130493595,0.05525697357568168,0.04124916249310061,0.22169589716426064,0.9803574484738711,-0.006032384640710624,-0.046358419589084286,0.15690037226393233,0.026437024857808047,0.14687436222204528,0.021399963497260338,0.04345397389293411,-0.06400725065386685,-0.05964381673406607,0.08269825077784809
157,-3.3333333333333335,Exhale,2,-0.016866353690272867,-0.04536718348397053,0.00761848949159403,0.0737305267365045,2.3846374759954183,-0.739935837150343,0.00033203146181193087,-0.028829029692951372,0.1344438332564017,0.05563617812710904,0.10972032958575699,0.015231988572143468,0.020911664374707782,-0.08638452225774494,-0.15222315866815372,0.13147920622685855
158,-3.0,Exhale,2,0.02322462955573973,-0.0405722692286964,-0.03933648125881567,0.09191026165995433,4.173638573862184,-2.3596416012123145,0.006529426878741918,-0.011206727712215607,0.09650916575913855,0.08162303504865752,0.07312705777677787,0.006391810049281864,-0.003347067844723818,-0.07760969249316034,-0.21140133933471406,0.16580984192551568
159,-2.6666666666666665,Exhale,2,0.05772146439782049,-0.03201744003204693,-0.08029211406324419,0.09751956479454403,5.147716209159864,-3.5099635424685722,0.010832169031092388,0.005966133017444949,0.049851489674625986,0.09612760968626215,0.035224574237815186,-0.0032110264281453266,-0.02401231330106811,-0.05032303646542163,-0.23088918481032716,0.1758065860143947
160,-2.3333333333333335,Exhale,2,0.08031204366671056,-0.020876848376645232,-0.10365616477640102,0.09200953078522377,5.082160156465096,-3.943471386775316,0.012969030980215556,0.02190020439528237,0.0031167572808642363,0.09296729636931982,-0.005285267447724384,-0.011211618525436824,-0.034750146900194526,-0.025262435108765614,-0.21273002823384257,0.15368286294152686
161,-2.0,Exhale,2,0.08783297154054985,-0.007984271823069622,-0.1018773049612495,0.07479773680636277,4.027889008552587,-3.5825019355650385,0.013266218771669386,0.035630269851696685,-0.037739216725636446,0.07141326437076122,-0.04836296087295163,-0.015929936084595173,-0.034675568694385414,-0.016575598799267646,-0.1657617756323469,0.09818261165918582
162,-1.6666666666666667,Exhale,2,0.08074515796536129,0.006441656768902795,-0.0791172849761291,0.04481192409421307,2.2612752787034194,-2.5374070333786616,0.011694650553979348,0.046369240983059244,-0.0719295867912434,0.036160134559166654,-0.09290018668250873,-0.017197316226963934,-0.031194108747177374,-0.021764306557777547,-0.10265246419274185,0.018806077666267334
163,-1.3333333333333333,Exhale,2,0.06282943470604593,0.022529945883240816,-0.051540753145608485,0.004290306076544878,0.19291893519817485,-1.094472545368698,0.007448599364332856,0.05383111863498454,-0.10352930636657559,-0.004954927647352427,-0.13760410386726704,-0.016204671555862096,-0.03551730613827134,-0.025196104194974776,-0.03743904653888874,-0.06378434483233374
164,-1.0,Exhale,2,0.04022310318824124,0.040312254689698054,-0.04165939006700364,-0.037955850922433955,-1.709670179586424,0.35047475405731543,-0.00048567059141776893,0.058373501896127354,-0.138795729464706,-0.04359502682846797,-0.18198330526668313,-0.014554301701074066,-0.05391062151985163,-0.012247804699427019,0.017839275850798746,-0.12546316726176343
165,-0.6666666666666666,Exhale,2,0.01981731875443717,0.05953345058513633,-0.07028761656287459,-0.0673957865701175,-3.0176203775747967,1.428346989477148,-0.011970940308603156,0.06099129725392508,-0.18189266003196514,-0.07332558205627573,-0.2267614781844314,-0.013317780380244875,-0.08227955916920537,0.018283882541517003,0.05764908378446633,-0.151379565126411
166,-0.3333333333333333,Exhale,2,0.007441807418174405,0.07974041744027295,-0.14773174525058722,-0.07049111643283915,-3.4653278799128278,1.9369586381432013,-0.024733400692606752,0.06314001324271135,-0.23139739911089155,-0.09124402368551096,-0.2733248198711601,-0.012829214153337428,-0.10850905246775874,0.05308649673335427,0.08530026567952845,-0.14397998461904388
167,0.0,Exhale,2,0.006502181380543252,0.10039762536246094,-0.2663802807388663,-0.04377523114053584,-3.0413857582406876,1.8812998077640741,-0.034920285520703316,0.06630982722527351,-0.28053125876509016,-0.09788591940400984,-0.3225766122179094,-0.013171305029382015,-0.11941264465085151,0.0727644388581522,0.11020414365852849,-0.11999587691983825
168,0.3333333333333333,Exhale,2,0.01755716818137512,0.12090816882376944,-0.4000545412662807,0.0019574837687596656,-1.9871340406858755,1.4009594250123654,-0.03886560365699011,0.07144298958889608,-0.32103180396962266,-0.09549763315998429,-0.3738846068205556,-0.014571943180261391,-0.10638738793505331,0.06164851420291595,0.14116779718326844,-0.09908823931242693
169,0.6666666666666666,Exhale,2,0.03885099696528754,0.14061341870318494,-0.5138289510784133,0.04703812106206866,-0.6964075368087479,0.6626639902491024,-0.03457216223521595,0.07852244643842596,-0.3475452494527699,-0.08584609066832109,-0.42465905580181323,-0.017182237042019877,-0.06837256737804859,0.014782636751899548,0.1795325881856863,-0.09152133028584829
170,1.0,Exhale,2,0.06729479197879612,0.15883224914586982,-0.5802659941623376,0.07506036458451767,0.44109324634193553,-0.20712676788049642,-0.021958656046456436,0.08663791272474776,-0.3595497424005782,-0.06889825838047635,-0.47092083350867686,-0.020614047256337666,-0.014006207302676883,-0.05742209915958213,0.21614191730860327,-0.09146451752362701
171,1.3333333333333333,Exhale,2,0.09936695950207419,0.17495423279301953,-0.5912547370295997,0.08255584911508591,1.1751032561945525,-1.1186745471577544,-0.0019430393975772167,0.09451723647650125,-0.35981109069533407,-0.04349223307841853,-0.508611368600722,-0.023881440477232473,0.03873143768082211,-0.12921447137461028,0.23509852344923915,-0.08003495000876483
172,1.6666666666666667,Exhale,2,0.1316636845207183,0.1885968666389836,-0.5579576934886027,0.07892742170470808,1.4366541844525917,-1.9656135033806017,0.02475758044949982,0.1011946304919632,-0.3510645111218495,-0.009835973631792205,-0.5350973419001179,-0.025769763616433454,0.06944886926374251,-0.16933234661209312,0.22385828465188318,-0.03805096692547594
173,2.0,Exhale,2,0.16106959357512807,0.1997315128832052,-0.5024484823313239,0.07869914561457217,1.2852245545913163,-2.588452254391402,0.057925856982450084,0.10643568072229119,-0.3340533288496122,0.028264658353485496,-0.5505290217645197,-0.025290177524327877,0.06646285787373747,-0.15754989668686684,0.18397734928947002,0.03819089225062272
174,2.3333333333333335,Exhale,2,0.18488153028767504,0.20862356602585197,-0.4485391510694743,0.09336693607127716,0.8440298977786889,-2.81575329262304,0.09710210816167486,0.11069824194266374,-0.30831603533775814,0.06372593175087529,-0.5582392523594952,-0.022156953281238186,0.033298226528553146,-0.09506531265481738,0.1347324697106862,0.1293400543854676
175,2.6666666666666665,Exhale,2,0.2011287908182874,0.21555565220350942,-0.414573111661386,0.12696928046810985,0.28943460881798133,-2.5716369681408833,0.14074507469554365,0.11465910137805041,-0.2745150951856683,0.0891653643735716,-0.5634449277744643,-0.017148795263576395,-0.014177666206694849,-0.0014168777961840167,0.10588113287283023,0.20031457783154555
176,3.0,Exhale,2,0.2088181819521561,0.22048209638668181,-0.4091288025870921,0.17562255354814252,-0.14558641172556153,-1.9550495940771775,0.186010774493966,0.11863772112733004,-0.23590139397332943,0.10010818769607133,-0.5708759958490222,-0.011824349496814903,-0.05610218814507901,0.09610856158400193,0.12376445803613778,0.21739334059480514
177,3.3333333333333335,Exhale,2,0.20786662813925896,0.2228997505283016,-0.4310499866640318,0.23003272515465395,-0.22892873103656278,-1.206990023295603,0.22934215821165396,0.12235507776196797,-0.19712747819949278,0.09582722740763588,-0.582576692417538,-0.007533532122644212,-0.07592270933770244,0.1715261481712284,0.19977780374343965,0.16331226694207998
178,3.6666666666666665,Exhale,2,0.19883020340960814,0.22209710791959256,-0.4726472099425886,0.27934581779335843,0.15417947449247027,-0.5916677902924595,0.26756305425335736,0.1251683550801427,-0.16152074230968427,0.0782548341545963,-0.596848518757021,-0.004565763855161549,-0.063823708309398,0.20482918979737147,0.3265351999340912,0.043736070225744834
179,4.0,Exhale,2,0.18264287145258934,0.21755470589462,-0.5228712985730749,0.3149600143130256,0.9018144994450061,-0.2829387419518265,0.29872585871189516,0.12649744247188363,-0.12980830742074745,0.05155125953950053,-0.6088645302956125,-0.0021489633350257635,-0.018179530352720994,0.185534469001245,0.48034748183825393,-0.1141202321431622
180,4.333333333333333,Exhale,2,0.16058258041266277,0.20913422091311998,-0.569341076094277,0.33363955734758477,1.7019107852693256,-0.3112916458204507,0.32229759477572845,0.12604669813497502,-0.10103494680327851,0.022522562205491897,-0.6125439162635773,0.0008961145756954619,0.05234177485236659,0.11822314823892474,0.6270825758676092,-0.2689454226305738
181,4.666666666666667,Exhale,2,0.13448200113267159,0.1969682135926485,-0.6009710655238778,0.3388112127019224,2.184397182741716,-0.578935659358084,0.3387742011854873,0.12371776324133542,-0.07383023788520224,-0.0006399828450475007,-0.602688186932252,0.005481339743144979,0.12769355357097986,0.02616574680671584,0.7307348686361927,-0.37855323782300737
182,5.0,Exhale,2,0.10690483022132477,0.18124058892925093,-0.6119370954902494,0.3388665822590209,2.1426609937420134,-0.9267062205753437,0.34900026267632556,0.1194498511091201,-0.04686014259649427,-0.011765184782269051,-0.5765586444127119,0.011933503825025813,0.18095964526232164,-0.05462156485404521,0.7645559146478584,-0.41629183798810704
183,5.333333333333333,Exhale,2,0.08093720527898686,0.16209902472023477,-0.6046054138486477,0.34281503026393356,1.6598462828307072,-1.2140535833152646,0.3536914579501102,0.11321196169173937,-0.019071729047127253,-0.009178703721403152,-0.5343895683655758,0.020031162648478314,0.1891762491477159,-0.09118834576890593,0.7214456614820741,-0.38282035925293767
184,5.666666666666667,Exhale,2,0.05941953831417261,0.13979098918525187,-0.5882589399672059,0.3548856963491911,1.0460618069619916,-1.3707028753238963,0.35354804918006855,0.10513836076779055,0.009722490499424714,0.005111279297447748,-0.4789115543328496,0.02930216923616018,0.1448297085519783,-0.06988506489222433,0.6173731995936648,-0.3047136233457607
185,6.0,Exhale,2,0.043935451785693844,0.11487641983609949,-0.5733149529840785,0.3709757833392769,0.6519762337188408,-1.4039037357865682,0.349832473267979,0.09570803397956122,0.03878019433606793,0.028009549421831,-0.41438678341166896,0.039469012183852875,0.060786101244500235,-0.0027444402049168104,0.48408582139599676,-0.2190074409785188
186,6.333333333333333,Exhale,2,0.03433615919742898,0.08827017387400671,-0.5654201266160249,0.3806363027880206,0.6964268527303337,-1.3766424289581725,0.3449029237134263,0.08587405658099123,0.06768963811880975,0.056711080823913476,-0.3453878298186765,0.050671486537069196,-0.0348233164897297,0.07961891489021103,0.35421095811749076,-0.15230286960659375
187,6.666666666666667,Exhale,2,0.029318766494813717,0.06108187708752706,-0.5640129940185988,0.37421488147553195,1.2016203298110244,-1.3869067149423997,0.3422060319648463,0.07700667509355834,0.09784249903976265,0.08835753008987197,-0.27543801386328876,0.0631668174545174,-0.11141130770806933,0.14462793727611706,0.24789881046854084,-0.10748091868959857
188,7.0,Exhale,2,0.027685384840372397,0.034519818737361485,-0.5641384138556381,0.3491951475211267,2.040520826697109,-1.5525528342858863,0.34560351310545495,0.07056070775741444,0.13230997717923298,0.11977033686949207,-0.20610025421857542,0.07688291385193596,-0.1487929387676077,0.17378338364708162,0.16959298877991974,-0.06691356535616634
189,7.333333333333333,Exhale,2,0.029270728108479725,0.010020741180473903,-0.5576024231803721,0.3110872964487742,3.028014747830268,-1.9725675491070178,0.3583395527338494,0.06756772683793835,0.1741364857920863,0.14803589294814234,-0.1371162495249498,0.0913662822370082,-0.14237449945284103,0.16808348922129598,0.11445222464255632,-0.008129411504442758
190,7.666666666666667,Exhale,2,0.034762465144476846,-0.01070263122226957,-0.5333741564288628,0.26960397807897307,3.976569314974456,-2.655651249249503,0.3821474756081705,0.06818624336494057,0.22470892852357,0.1708822724666249,-0.06734651312475422,0.10598220128994575,-0.10026899564175977,0.14261249576803595,0.07616892070801445,0.08173196726688949
191,8.0,Exhale,2,0.044556817957039835,-0.026142562796257606,-0.47984566580922605,0.2329748986094457,4.706867948287327,-3.4652283284762664,0.4168664302178106,0.07149937443874596,0.2831852631020484,0.186450235638483,0.004307881536438175,0.11997801274362915,-0.03796736428477656,0.1184135756188297,0.05079788109109582,0.20090049426559453
192,8.333333333333334,Exhale,2,0.057708787392918987,-0.03586457062372974,-0.3892909799855136,0.20308217007311827,5.08572427740938,-4.153385732432074,0.4606066911001265,0.07566002930731923,0.34663263952924545,0.19366289433049952,0.07849337425075861,0.13251923277767752,0.026821583633781374,0.11527148114493535,0.037924608619879195,0.3344079590210128
193,8.666666666666666,Exhale,2,0.07204217857755686,-0.04097943330206806,-0.26219495180402874,0.1743877018894116,5.1106482833972215,-4.489263024226123,0.5102283456114612,0.07841470355777794,0.41057258882208886,0.19353941696125945,0.1554480333201721,0.14289795183896076,0.08069443832602602,0.1430554006670015,0.04113079181194017,0.45729167157705797
194,9.0,Exhale,2,0.08530419079112134,-0.04369282799552648,-0.10998435766229345,0.13877101443401285,4.931251630136949,-4.3836356146290925,0.5618490854620951,0.07784050613006477,0.4700504879072132,0.18979177488255713,0.23510018743855582,0.15064146567563966,0.1200123429493468,0.19518265873574708,0.06624383980723157,0.5407377729419249
195,9.333333333333334,Exhale,2,0.09624799998517468,-0.04630304604087733,0.044130349420655406,0.09439193257706656,4.742944282496078,-3.9117769330322107,0.6112771726107663,0.07292863968061024,0.5209909187585623,0.18761987977888653,0.31670636823130993,0.15530977503203292,0.1490774989947615,0.2528603018206877,0.11565077233106347,0.5631101574461658
196,9.666666666666666,Exhale,2,0.1049269059693,-0.050420753014798834,0.16844579577586433,0.051808154910851494,4.648803524705693,-3.239068781837583,0.6545119564049711,0.06380786072345265,0.5616432682202447,0.1915194026574351,0.3979531198902592,0.15636689222031766,0.17168433989577028,0.29850789663243543,0.18151274485106714,0.5212217389750817
197,10.0,Exhale,2,0.11234050576987531,-0.05678601989400456,0.23269395621561162,0.030924204129634123,4.608197034524302,-2.5274117840356185,0.6884176279785416,0.05170553734728281,0.5939956938750499,0.20321850732476712,0.4742080273745951,0.15346234202771825,0.18542044073073405,0.32525781472167736,0.24379703991940022,0.4341392827567951
198,10.333333333333334,Exhale,2,0.11965985454116904,-0.06553514528125312,0.2218450648965911,0.04958422481981092,4.496318079660305,-1.8902850046102138,0.711253992196762,0.038688011299255476,0.6235426663374112,0.22087857741987058,0.538661276863855,0.14681660969203192,0.18472704828873504,0.33468959741995247,0.2760877977300079,0.33648466428374085
199,10.666666666666666,Exhale,2,0.12717833988450558,-0.076585699480022,0.1460716074037419,0.11171291284196729,4.2096042375627185,-1.3915035164143534,0.7226596092857289,0.027080661582969096,0.655815698770213,0.24056447662104663,0.5835327114029178,0.137305925893318,0.1681279490552863,0.3286064808476917,0.257145825969626,0.26344646356172036
200,11.0,Exhale,2,0.1335294082461151,-0.08984266686306362,0.04036827309148891,0.20277040543150684,3.719797111981724,-1.0381387696448847,0.7233007400196727,0.018689295772317437,0.6919090334228192,0.2587501077523658,0.6021542464836297,0.12624918070582727,0.14165150449291167,0.3048158825021895,0.18287634997112898,0.23401623333361837
201,11.333333333333334,Exhale,2,0.13581911641504735,-0.10508207569967722,-0.047355784245538796,0.2944417385442648,3.04843884046882,-0.7731573419577894,0.7145760646231925,0.014212064341166921,0.7272442732687605,0.27316237999701976,0.5911410960489625,0.1150357780921446,0.11598210865801639,0.25983493266119356,0.07095280575190138,0.243122082391579
202,11.666666666666666,Exhale,2,0.13088152039201895,-0.12159238688706289,-0.07526140775226797,0.3556527016912749,2.2232378986534647,-0.5141126637008079,0.6982660654170072,0.013154412156969822,0.7544581646048852,0.2817496545770869,0.5514819814378346,0.10466534841133866,0.10046295295063956,0.19443843932832064,-0.04695973537599209,0.2691546623003342
203,12.0,Exhale,2,0.11726652022247057,-0.13773683910025042,-0.024563875139911515,0.36512534548181674,1.2732999412849586,-0.2195346828662157,0.675997355556568,0.014212324142443071,0.7672445897836616,0.28213892397199875,0.48823060860422046,0.0953647303865251,0.09846396099860989,0.11715879259123017,-0.14031383671031084,0.2905246411415011
204,12.333333333333334,Exhale,2,0.09675326309264717,-0.15070000111966575,0.09460127485477325,0.3195863028898001,0.2607757436963715,0.08869028740727125,0.6486395334529379,0.015806503156222104,0.7618262041885031,0.2727451014484693,0.40904582480919915,0.08657162252307463,0.10710766554740495,0.04269281686206754,-0.1909783231299523,0.2980234417753797
205,12.666666666666666,Exhale,2,0.07400499912193315,-0.1569420821673023,0.2507765981747279,0.2331973977284626,-0.6951393730562141,0.3706181297877652,0.615989619085477,0.016555829099316105,0.7362939293458137,0.2541635887297496,0.3217890152276122,0.07740104713407137,0.12100843849651202,-0.0149205108396476,-0.1954041711953719,0.29570193427713765
206,13.0,Exhale,2,0.05433049700202787,-0.1535535759829542,0.4067496630029215,0.12944713473226108,-1.4360079300838975,0.6160684136066815,0.577466744851365,0.01570387443161744,0.6907517559828353,0.22905370021836016,0.23229002053945702,0.06725235210635465,0.13656754476215766,-0.04983297958119293,-0.16059370249628738,0.2932826621162047
207,13.333333333333334,Exhale,2,0.04109594327208124,-0.13965003651811755,0.5342806616134173,0.03139758693745155,-1.8078907295072175,0.8199314691802213,0.5337248551047677,0.013404644468894486,0.6287908005548787,0.2006714498815184,0.1436276073352048,0.05604755950709412,0.153500888779297,-0.06662744612665106,-0.09824834817512243,0.29764957664733677
208,13.666666666666666,Exhale,2,0.034522163858086645,-0.11667118690252834,0.6214712395622087,-0.04510637740749431,-1.7063726068488014,0.920209842053946,0.4876934213366077,0.010637972603608933,0.5574304417957512,0.17217989920172333,0.05682529987489991,0.04406138360824527,0.17357331939793788,-0.07600748064332033,-0.01944399464229233,0.3085339240878465
209,14.0,Exhale,2,0.0324063959101628,-0.08753245139445928,0.6719137337666525,-0.0941873554498337,-1.1181153411275115,0.8004656751416984,0.44405384497302747,0.008730360414428371,0.48439250679073936,0.14773764827383865,-0.02787845185038675,0.03172385485377267,0.1991177525270997,-0.0884063136741423,0.06825704200472131,0.3197737767280852
210,14.333333333333334,Exhale,2,0.03184890131771824,-0.05554886680747493,0.6976738626174762,-0.11821113825098846,-0.1371895721942094,0.3707212743045509,0.40761648428773317,0.008738477664051923,0.41523509022683464,0.13320500460593243,-0.10983226491079251,0.01956279166906808,0.23224073953798038,-0.10998625984377748,0.1599724597482171,0.32430192026131244
211,14.666666666666666,Exhale,2,0.03070880867602311,-0.023845924548549922,0.7090915057149967,-0.12205463602017441,1.0577062978851755,-0.344373370930376,0.3815816529894141,0.011044190613007938,0.35305350987163825,0.13404186029244938,-0.18744092768543053,0.008185011301009824,0.2728040518963216,-0.14087867086577563,0.25026462628993706,0.3186857332778491
212,15.0,Exhale,2,0.028279727078017042,0.004787633572558996,0.7074993143039073,-0.10755912876636699,2.243578363334074,-1.17466530661899,0.3666060947451731,0.01536504157533837,0.3006200227383762,0.1514042046425115,-0.2584407102182087,-0.0016840433436244393,0.31534751446617765,-0.17448746402090853,0.3307815687671944,0.30425215624474533
213,15.333333333333334,Exhale,2,0.025270510875792518,0.027972178237481493,0.6858813914854492,-0.07296276053289791,3.212378614726618,-1.8710901709294008,0.36092585583779,0.021053041648505057,0.26209671520955474,0.17995628927495147,-0.32067554782716345,-0.009115458062844384,0.3484921457068451,-0.19945262458173726,0.39127313445100664,0.2844089246605689
214,15.666666666666666,Exhale,2,0.023298064827218565,0.043913449423770096,0.635390361754512,-0.01723241132797085,3.861281353053807,-2.2537029772447363,0.3609451462410637,0.027369674163977495,0.2420663392504913,0.20941406717006703,-0.37305345848768307,-0.013139412215131343,0.3587411659158845,-0.2050431647473423,0.42372844797588816,0.2595429879744406
215,16.0,Exhale,2,0.024168213525099243,0.05167415108130429,0.5519424440769247,0.055146817060249834,4.2434598029901975,-2.324623458933405,0.3619047827048132,0.03358721168904183,0.24285349540007542,0.22859439274414967,-0.4162111386156488,-0.01325313428121186,0.3370442944137545,-0.187694753753489,0.42633383422473925,0.22395801130733334
216,16.333333333333332,Exhale,2,0.029111660905285965,0.05143660658399379,0.438991618052495,0.1334186411350596,4.484737875347566,-2.2240647069631216,0.35872711275346714,0.03900067384521096,0.262248779926598,0.22966966629318392,-0.45261444158975583,-0.00980794766755451,0.28432862225781136,-0.1550246050357628,0.40307786069383206,0.17021272883722116
217,16.666666666666668,Exhale,2,0.03812220614154463,0.04454548596015648,0.305666426729528,0.20502893144977805,4.633258144121964,-2.074361939908877,0.3471284403467527,0.042984634260461396,0.2928912302639791,0.21111232258385482,-0.4861344599671322,-0.0038373347071094807,0.211741280116825,-0.1233500766441386,0.3588060513511323,0.09911452519079288
218,17.0,Exhale,2,0.0497582356788915,0.03318254763973175,0.16270338805101278,0.2620578084841807,4.639684954055376,-1.9014043994449643,0.32489647295428564,0.045089548016077605,0.3240359043845094,0.17816725037588435,-0.5209151931104,0.0034346556692078064,0.13512423280545774,-0.10875719783050992,0.29525235893526214,0.025208704292918112
219,17.333333333333332,Exhale,2,0.06157532158866995,0.019756561304219312,0.020405606543424513,0.30390188712782024,4.512408108337091,-1.7196012639277867,0.2926745192794967,0.04504031228781352,0.3448650046308836,0.14049889228970414,-0.5596705341603935,0.01084028000444964,0.06845370057222908,-0.11860783299980474,0.21309470913070186,-0.029594454142844815
220,17.666666666666668,Exhale,2,0.07096475507694609,0.00627974364579774,-0.11018760914069885,0.33342374791985757,4.4426024255852,-1.6414792032596934,0.25351646157301577,0.04265494434171328,0.34706636171167243,0.10849696195481431,-0.6022511461436536,0.017184367431098014,0.020719770328745692,-0.14995696748684317,0.1183619854453472,-0.050021421957902455
221,18.0,Exhale,2,0.07613427579670588,-0.005968133676438497,-0.21708367013341623,0.35083134222761597,4.71354464531051,-1.8449166278530127,0.211544233332549,0.03791487167683117,0.3257586735502509,0.09036337486351748,-0.6451511496802582,0.021258063872145756,-0.0039059929730787353,-0.19369071948692762,0.026574235775051944,-0.03779956700354732
222,18.333333333333332,Exhale,2,0.07686951121577068,-0.01639607919891222,-0.29108560823190677,0.3521999523844481,5.462846701448179,-2.4218479192886426,0.1707385859895396,0.031225111416984093,0.2798063758969749,0.09081836929335652,-0.6821368613111103,0.02218027482978945,-0.005601402981363665,-0.23845305835214006,-0.04058673329279176,-0.01017648617189422
223,18.666666666666668,Exhale,2,0.07451792375842667,-0.024886007854912233,-0.32895307568160964,0.3333761437294734,6.518658880358648,-3.2688560516142666,0.13448041482396225,0.0235760733491963,0.21260447701387075,0.11071866649945597,-0.7058628199109183,0.01981607524571948,0.010632712939221394,-0.2716270452937871,-0.06470304565588776,0.011734060947736904
224,19.0,Exhale,2,0.07101464933784875,-0.03163053529290019,-0.3310556774252286,0.2942715561756613,7.455077925975331,-4.119422638645097,0.10578302604823604,0.016383095093618433,0.13307386597735266,0.14666491383071253,-0.7099043350712394,0.014954400459486983,0.036260001992534215,-0.2815003394649743,-0.0389864139441913,0.014620492811964453
225,19.333333333333332,Exhale,2,0.06759524509614084,-0.03698396846365548,-0.2978754463907533,0.24069204107638942,7.8317806286133695,-4.680127950648509,0.08768736620937123,0.011075028283135592,0.05532978127251736,0.19089768580905117,-0.6904252482465002,0.009134484295673897,0.06438732590907051,-0.2640986664783065,0.029735427489067514,-0.002794898285485116
226,19.666666666666668,Exhale,2,0.06413982851773042,-0.0411939241676791,-0.23202831693883938,0.18410741218345883,7.432575876498598,-4.767056951760484,0.0832028890354532,0.00863010672840348,-0.0043140763423163905,0.23258131788971095,-0.6469747705225539,0.004162169388444418,0.09487207079729634,-0.22853035308200284,0.12415195342938556,-0.030637395678857454
227,20.0,Exhale,2,0.059507910550507574,-0.04413298892157015,-0.14311638833110846,0.1388238085702353,6.335255850016461,-4.368364196480167,0.09453883942658611,0.009233263622729608,-0.0325282993509586,0.260667906971177,-0.5823644548635776,0.0015018959536945674,0.1336863071435829,-0.19266327175691367,0.22214050700984656,-0.050844601968603895
228,-5.0,Inhale,3,-0.11887270793291241,-0.06911004218259582,0.11441262190942286,-0.18170927221691166,-2.6845273060884725,2.417913623574798,-0.1994028862327059,-0.037256579809981025,-0.09471668926658837,-0.10826425598582906,0.16803617204342414,-0.004925327826590818,-0.1277086785108574,0.053960545474966065,-0.1959968294940643,-0.02605049608344783
229,-4.666666666666667,Inhale,3,-0.09757887914899997,-0.04940479230318032,0.0006382120972903203,-0.13662863492360267,-1.393800802211345,1.679618188811535,-0.19510944481093173,-0.030177122960451153,-0.12123013474973553,-0.09861271349416585,0.11726172306216648,-0.007535621688349302,-0.08969385795385267,0.007094668023949673,-0.15763203849164645,-0.01848358705686919
230,-4.333333333333333,Inhale,3,-0.0691350841354914,-0.031185961860495433,-0.06579883098663404,-0.10860639140115363,-0.2563000190606617,0.8098274306819361,-0.18249593862217223,-0.02206165667412934,-0.13323462769754385,-0.08166488120632111,0.0709999453553029,-0.010967431902667094,-0.03532749787848096,-0.065110067887532,-0.12102270936872947,-0.018426774294647914
231,-4.0,Inhale,3,-0.03706291661221333,-0.015063978213345743,-0.07678757385389616,-0.1011109068705854,0.4777099907919552,-0.1017203485953221,-0.162480321973293,-0.014182332922375867,-0.13349597599229976,-0.056258855904263286,0.03330941026325774,-0.0142348251235619,0.01741014710501803,-0.13690244010256017,-0.10206610322809359,-0.0069972067797857305
232,-3.6666666666666665,Inhale,3,-0.004766191593569226,-0.0014213443673816684,-0.043490530312899046,-0.10473933428096323,0.7392609190499944,-0.9486593048181692,-0.13577970212621598,-0.007504938906913902,-0.12474939641881516,-0.02260259645763697,0.006823436963861847,-0.01612314826276288,0.048127578687938426,-0.177020315340043,-0.11330634202544955,0.03498677630350316
233,-3.3333333333333335,Inhale,3,0.02463971746084055,0.00971330187683994,0.01201868084437967,-0.10496761037109914,0.5878312891887192,-1.571498055828969,-0.1026114255932657,-0.002263888676585914,-0.1077382141465779,0.01549803552764073,-0.00860824290053991,-0.015643562170657304,0.045141567297933394,-0.1652378654148167,-0.15318727738786272,0.11122863547960182
234,-3.0,Inhale,3,0.048451654173387516,0.01860535501948671,0.06592801210622926,-0.09029981991439416,0.14663663237609165,-1.7987990940606073,-0.06343517441404094,0.0019986725437866203,-0.08200092063472385,0.05095930892503052,-0.016318473495515542,-0.012510337927567611,0.01197693595274907,-0.10275328138276725,-0.20243215696664654,0.20237779761444671
235,-2.6666666666666665,Inhale,3,0.06469891470399988,0.02553744119714415,0.09989405151431757,-0.056697475517561456,-0.4079586565846159,-1.5546827695784504,-0.019792207880172125,0.005959531979173305,-0.04819998048263398,0.07639874154772684,-0.021524148910484618,-0.007502179909905821,-0.035498956782498925,-0.00910484652413389,-0.2312834938045025,0.27335232106052465
236,-2.3333333333333335,Inhale,3,0.07238830583786858,0.030463885380316583,0.10533836058861144,-0.008044202437528788,-0.8429796771281587,-0.9380953955147449,0.025473491918250196,0.009938151728452926,-0.00958627927029512,0.08734156487022655,-0.02895521698504238,-0.002177734143144329,-0.0774234787208831,0.08842059285605205,-0.21340016864119496,0.29043108382378424
237,-2.0,Inhale,3,0.07143675202497143,0.032881539521936363,0.0834171765116717,0.04636596916898266,-0.92632199643916,-0.19003582473317046,0.06880487563593816,0.013655508363090853,0.029187636503541538,0.08306060458179111,-0.04065591355355831,0.0021130832310263608,-0.09724399991350652,0.16383817944327853,-0.1373868229338931,0.23635001017105908
238,-1.6666666666666667,Inhale,3,0.0624003272953206,0.032078896913227316,0.041819953233114986,0.09567906180768711,-0.5432137909101269,0.425286408269973,0.10702577167764156,0.016468785681265596,0.06479437239335005,0.06548821132875153,-0.05492773989304127,0.005080851498509025,-0.08514499888520208,0.19714122106942158,-0.010629426743241572,0.11677381345472393
239,-1.3333333333333333,Inhale,3,0.04621299533830181,0.027536494888254753,-0.008404135397371334,0.1312932583273543,0.2044212340424089,0.734015456610606,0.1381885761361794,0.017797873073006513,0.09650680728228687,0.038784636713655764,-0.06694375143163278,0.00749765201864481,-0.039500820928525075,0.17784650027329513,0.14318285516092114,-0.04108248891418312
240,-1.0,Inhale,3,0.024152704298375245,0.019116009906754716,-0.05487391291857342,0.14997280136191346,1.0045175198667284,0.7056625527419818,0.16176031220001266,0.01734712873609792,0.12528016789975582,0.00975593937964713,-0.07062313739959762,0.010542729929366036,0.03102048427656251,0.11053517951097488,0.28991794919027647,-0.19590767940159468
241,-0.6666666666666666,Inhale,3,-0.0019478749816159127,0.006950002586283238,-0.08650390234817422,0.15514445671625107,1.4870039173391187,0.43801853920434847,0.1782369186097715,0.015018193842458316,0.15248487681783207,-0.013406605670892266,-0.06076740806827218,0.015127955096815552,0.10637226299517577,0.018477778078765966,0.3935702419588601,-0.30551549459402827
242,-0.3333333333333333,Inhale,3,-0.029525045892962752,-0.008777622077114322,-0.09746993231454584,0.15519982627334958,1.445267728339416,0.09024797798708875,0.18846298010060974,0.010750281710242976,0.17945497210654007,-0.024531807608113815,-0.03463786554873212,0.021580119178696386,0.15963835468651755,-0.06230953358199508,0.4273912879705258,-0.34325409475912794
243,0.0,Inhale,3,-0.055492670835300656,-0.027919186286130483,-0.09013825067294416,0.15914827427826228,0.96245301742811,-0.19709938475283217,0.19315417537439444,0.0045123922928622506,0.20724338565590708,-0.021945326547247918,0.007531210498403938,0.029677778002148887,0.16785495857191182,-0.0988763144968558,0.3842810348047414,-0.30978261602395857
244,0.3333333333333333,Inhale,3,-0.0770103378001149,-0.05022722182111338,-0.07379177679150233,0.17121894036351978,0.34866854155939436,-0.3537486767614637,0.19301076660435276,-0.0035612086310865573,0.23603760520245903,-0.007655343528397018,0.06300922453113013,0.038948784589830754,0.12350841797617418,-0.0775730336201742,0.28020857291633194,-0.2316758801167816
245,0.6666666666666666,Inhale,3,-0.09249442432859369,-0.07514179117026577,-0.05884778980837495,0.1873090273536056,-0.04541703168375641,-0.38694953722413566,0.18929519069226322,-0.012991535419315893,0.2650953090391023,0.015242926595986235,0.12753399545231078,0.049115627537523444,0.03946481066869616,-0.010432408932866686,0.14692119471866402,-0.14596969774953972
246,1.0,Inhale,3,-0.10209371691685855,-0.10174803713235854,-0.050952963440321304,0.19696954680234927,-0.0009664126722635763,-0.3596882303957398,0.1843656411377105,-0.022825512817885866,0.2940047528218441,0.04394445799806871,0.19653294904530322,0.06031810189073976,-0.05614460706553378,0.07193094616226116,0.017046331440158012,-0.07926512637761467
247,1.3333333333333333,Inhale,3,-0.1071111096194738,-0.12893633391883821,-0.04954583084289527,0.19054812548986064,0.5042270644084272,-0.3699525163799672,0.1816687493891305,-0.03169289430531876,0.32415761374279695,0.07559090726402722,0.26648276500069096,0.07281343280818797,-0.1327325982838734,0.1369399685481672,-0.08926581620879191,-0.034443175460619466
248,1.6666666666666667,Inhale,3,-0.10874449127391513,-0.15549839226900378,-0.0496712506799345,0.1655283915354554,1.3431275612945117,-0.5355986357234539,0.18506623052973917,-0.038138861641462664,0.3586250918822673,0.10700371404364731,0.3358205246454043,0.08652952920560654,-0.1701142293434118,0.16609541491913177,-0.167571637897413,0.006124177872812755
249,2.0,Inhale,3,-0.1071591480058078,-0.17999746982589135,-0.04313526000466854,0.1274205404631029,2.330621482427671,-0.9556133505445856,0.19780227015813356,-0.04113184256093876,0.40045160049512063,0.1352692701222976,0.40480452933902994,0.10101289759067877,-0.16369579002864512,0.1603955204933461,-0.2227124020347764,0.06490833172453633
250,2.3333333333333335,Inhale,3,-0.10166741096981068,-0.20072084222863484,-0.018906993253159143,0.08593722209330176,3.2791760495718587,-1.6386970506870706,0.22161019303245463,-0.04051332603393654,0.45102404322660433,0.15811564964078015,0.4745742657392255,0.11562881664361632,-0.12159028621756385,0.1349245270400861,-0.26099570596931826,0.15476971049586857
251,2.6666666666666665,Inhale,3,-0.09187305815724768,-0.21616077380262286,0.034621497366477495,0.04930814262377439,4.00947468288473,-2.448274129913834,0.25632914764209486,-0.037200194960131154,0.5095003778050827,0.17368361281263825,0.546228660400418,0.12962462809729974,-0.059288654860580645,0.11072560689087985,-0.28636674558623687,0.27393823749457363
252,3.0,Inhale,3,-0.07872108872136853,-0.22588278163009498,0.12517618319018994,0.01941541408744695,4.388331012006782,-3.136431533869642,0.30006940852441066,-0.03303954009155788,0.5729477542322798,0.18089627150465473,0.6204141531147384,0.14216584813134808,0.005500293057977295,0.1075835124169855,-0.29924001805745354,0.4074457022499919
253,3.3333333333333335,Inhale,3,-0.06438769753673065,-0.2309976443084333,0.2522722113716748,-0.009279054096259707,4.413255017994625,-3.47230882566369,0.34969106303574543,-0.030284865841099174,0.6368877035251231,0.1807727941354147,0.6973688121841518,0.15254456719263135,0.05937314775022194,0.13536743193905162,-0.2960338348653926,0.5303294148060371
254,3.6666666666666665,Inhale,3,-0.05112568532316617,-0.23371103900189175,0.4044828055134101,-0.04489574155165847,4.233858364734352,-3.36668141606666,0.40131180288637947,-0.030859063268812353,0.6963656026102476,0.17702515205671235,0.7770209663025356,0.16028808102931025,0.0986910523735427,0.1874946900077972,-0.2709207868701012,0.613775516170904
255,4.0,Inhale,3,-0.040181876129112844,-0.23632125704724258,0.5585975125963589,-0.08927482340860475,4.045551017093481,-2.8948227344697783,0.4507398900350505,-0.035770929718266876,0.7473060334615967,0.17485325695304174,0.8586271470952896,0.16495639038570348,0.1277562084189574,0.24517233309273784,-0.22151385434626927,0.6361479006751448
256,4.333333333333333,Inhale,3,-0.03150297014498751,-0.24043896402116408,0.6829129589515679,-0.1318586010748198,3.9514102593030955,-2.2221145832751503,0.4939746738292553,-0.04489170867542446,0.7879583829232789,0.17875277983159032,0.939873898754239,0.16601350757398822,0.1503630493199662,0.2908199279044856,-0.1556518818262656,0.5942594822040608
257,4.666666666666667,Inhale,3,-0.024089370344412216,-0.24680423090036982,0.7471611193913151,-0.1527425518560372,3.9108037691217046,-1.510457585473186,0.5278803454028257,-0.05699403205159431,0.8203108085780844,0.19045188449892236,1.016128806238575,0.16310895738138884,0.16409915015492993,0.3175698459937275,-0.09336758675793254,0.5071770259857742
258,5.0,Inhale,3,-0.0167700215731185,-0.2555533562876184,0.7363122280722946,-0.13408253116586039,3.798924814257707,-0.8733308060477811,0.5507167096210461,-0.07001155809962165,0.8498577810404456,0.20811195459402582,1.0805820557278347,0.1564632250457025,0.16340575771293092,0.3270016286920026,-0.06107682894732482,0.40952240751271995
259,5.333333333333333,Inhale,3,-0.009251536229781927,-0.26660391048638726,0.6605387705794454,-0.07195384314370404,3.512210972160121,-0.3745493178519211,0.562122326710013,-0.08161890781590801,0.8821308134732473,0.22779785379520184,1.1254534902668976,0.14695254124698856,0.14680665847948218,0.3209185121197418,-0.08001880070770678,0.3364842067906994
260,5.666666666666667,Inhale,3,-0.002900467868172434,-0.27986087786942887,0.5548354362671925,0.01910364944583555,3.022403846579127,-0.021184571082452246,0.562763457443957,-0.09001027362655968,0.9182241481258535,0.24598348492652103,1.1440750253476095,0.13589579605949786,0.12033021391710759,0.29712791377423964,-0.15428827670620374,0.3070539765625975
261,6.0,Inhale,3,-0.0006107596992401808,-0.2951002867060425,0.46711137893016474,0.11077498255859353,2.3510455750662227,0.24379685660464306,0.5540387820474766,-0.0944875050577102,0.9535593879717947,0.260395757171175,1.133061874912942,0.12468239344581518,0.09466081808221231,0.2521469639332437,-0.26621182092543133,0.3161598256205581
262,6.333333333333333,Inhale,3,-0.005548355722268576,-0.31161059789342815,0.43920575542343554,0.17198594570560358,1.5258446332508673,0.5028415348616245,0.5377287828412914,-0.09554515724190729,0.9807732793079195,0.26898303175124216,1.0934027603018142,0.11431196376500924,0.07914166237483548,0.18675047060037075,-0.38412436205332484,0.3421924055293133
263,6.666666666666667,Inhale,3,-0.019163355891816957,-0.32775505010661565,0.48990328803579203,0.18145858949614543,0.5759066758823614,0.7974195156962167,0.5154600729808523,-0.09448724525643404,0.9935597044866961,0.269372301146154,1.0301513874682002,0.10501134574019567,0.07714267042280581,0.1094708238632803,-0.47747846338764355,0.36356238437048016
264,7.0,Inhale,3,-0.03967661302164035,-0.340718212126031,0.6090684380304767,0.13591954690412883,-0.4366175217062257,1.1056444859697037,0.4881022508772222,-0.092893066242655,0.9881413188915374,0.2599784786226246,0.9509666036731789,0.0962182378767452,0.08578637497160085,0.03500484813411765,-0.528142949807285,0.37106118500435875
265,7.333333333333333,Inhale,3,-0.06242487699235437,-0.34696029317366756,0.7652437613504314,0.04953064174279128,-1.3925326384588113,1.3875723283501977,0.4554523365097612,-0.092143740299561,0.9626090440488481,0.24139696590390478,0.863709794091592,0.08704766248774194,0.09968714792070796,-0.022608479567597473,-0.5325687978727046,0.3687396775061167
266,7.666666666666667,Inhale,3,-0.08209937911225966,-0.34357178698931945,0.9212168261786251,-0.054219621253410226,-2.1334011954864947,1.633022612169114,0.4169294622756492,-0.09299569496725968,0.9170668706858697,0.21628707739251538,0.7742107994034367,0.07689896746002522,0.11524625418635355,-0.05752094830914279,-0.4977583291736201,0.36632040534518384
267,8.0,Inhale,3,-0.09533393284220627,-0.3296682475244828,1.0487478247891209,-0.15226916904821977,-2.505283994909815,1.836885667742654,0.37318757252905194,-0.09529492492998262,0.8551059152579131,0.1879048270556736,0.6855483861991845,0.0656941748607647,0.13217959820349293,-0.07431541485460093,-0.43541297485245517,0.3706873198763158
268,8.333333333333334,Inhale,3,-0.10190771225620086,-0.3066893979088936,1.1359384027379125,-0.22877313339316563,-2.4037658722513986,1.9371640406163786,0.32715613876089195,-0.09806159679526819,0.7837455564987856,0.15941327637587857,0.5987460787388798,0.05370799896191584,0.1522520288221338,-0.0836954493712702,-0.35660862131962506,0.3815716673168256
269,8.666666666666666,Inhale,3,-0.10402348020412472,-0.27755066240082454,1.1863808969423562,-0.277854111435505,-1.8155086065301087,1.817419873704131,0.28351656239731166,-0.09996920898444875,0.7107076214937736,0.1349710254479939,0.514042327013593,0.04137047020744325,0.17779646195129561,-0.09609428240209217,-0.2689075846726114,0.3928115199570643
270,9.0,Inhale,3,-0.10458097479656928,-0.24556707781384018,1.2121410257931797,-0.3018778942366598,-0.8345828375968066,1.3876754728669833,0.24707920171201736,-0.09996109173482519,0.6415502049298689,0.12043838178008766,0.43208851395318726,0.029209407022738658,0.2109194489621763,-0.11767422857172735,-0.17719216692911563,0.39733966349029154
271,9.333333333333334,Inhale,3,-0.1057210674382644,-0.21386413555491515,1.2235586688907003,-0.30572139200584575,0.3603130324825782,0.6725808276320564,0.22104437041369832,-0.09765537878586918,0.5793686245746726,0.12127523746660461,0.35447985117854924,0.017831626654680396,0.25148276132051756,-0.1485666395937255,-0.08690000038739568,0.39172347650682815
272,9.666666666666666,Inhale,3,-0.10815014903627047,-0.18523057743380625,1.221966477479611,-0.2912258847520383,1.5461850979314764,-0.1577111080565575,0.20606881216945733,-0.09333452782353874,0.5269351374414105,0.1386375818166667,0.2834800686457711,0.007962572010046133,0.2940262238903736,-0.18217543274885842,-0.006383057910138364,0.37728989947372443
273,10.0,Inhale,3,-0.111159365238495,-0.16204603276888377,1.2003485546611528,-0.25662951651856925,2.5149853493240206,-0.8541359723669685,0.2003885732620742,-0.08764652775037206,0.488411829912589,0.16718966644910668,0.2212452310368163,0.0005311572908261886,0.32717085513104105,-0.20714059330968715,0.054108507773673896,0.357446667889548
274,10.333333333333334,Inhale,3,-0.11313181128706895,-0.14610476158259517,1.1498575249302156,-0.20089916731364216,3.16388808765121,-1.2367487786823042,0.2004078636653479,-0.08132989523489961,0.46838145395352565,0.1966474443442222,0.16886732037629668,-0.0034927968614607684,0.3374198753400805,-0.21273113347529218,0.08656382129855547,0.3325807312034196
275,10.666666666666666,Inhale,3,-0.11226166258918828,-0.13834405992506094,1.0664096072526283,-0.1285199389254215,3.5460665375876,-1.307669260370972,0.20136750012909738,-0.07511235770983528,0.46916861010310973,0.2158277699183049,0.12570964024833095,-0.0036065189275412872,0.31572300383795043,-0.19538272248143887,0.08916920754740651,0.29699575453631244
276,11.0,Inhale,3,-0.10731821520900156,-0.13858160442237144,0.9534587812281985,-0.050248114850611716,3.7873446099449692,-1.2071105084006888,0.19818983017775135,-0.06969889555366615,0.4885638946296324,0.21690304346733913,0.0893063372742239,-0.0001613323138839377,0.26300733168200724,-0.16271257376371268,0.06591323401649932,0.24325047206620026
277,11.333333333333334,Inhale,3,-0.09830766997274289,-0.14547272504620878,0.8201335899052314,0.02136217546410672,3.935864878719366,-1.0574077413464449,0.18659115777103688,-0.06571493513841571,0.5192063449670135,0.19834569975801003,0.05578631889684752,0.005809280646561093,0.19041998954102093,-0.1310380453720885,0.021641424673799547,0.17215226841977196
278,11.666666666666666,Inhale,3,-0.08667164043539602,-0.15683566336663352,0.6771705512267163,0.07839105249850939,3.9422916886527783,-0.8844502008825317,0.16435919037856986,-0.06361002138279952,0.5503510190875438,0.16540062755003962,0.02100558575357967,0.01308127102287838,0.11380294222965365,-0.1164451665584598,-0.04191226774207061,0.0982464475218972
279,12.0,Inhale,3,-0.07485455452561758,-0.17026164970214594,0.5348727697191281,0.1202351311421489,3.8150148429344934,-0.702647065365354,0.13213723670378094,-0.06365925711106359,0.5711801193339179,0.12773226946385935,-0.017749755296413802,0.020486895358120212,0.047132409996425,-0.12629580172775462,-0.12406991754663088,0.04344328908613428
280,12.333333333333334,Inhale,3,-0.06546512103734142,-0.1837384673605675,0.40427955403500476,0.1497569919341863,3.745209160182603,-0.6245250046972609,0.09297917899729993,-0.06604462505716382,0.5733814764147067,0.09573033912896955,-0.060330367279673884,0.02683098278476859,-0.000601520247058388,-0.15764493621479306,-0.2188026412319855,0.02301632127107664
281,12.666666666666666,Inhale,3,-0.06029560031758164,-0.19598634468280376,0.29738349304228734,0.16716458624194466,4.016151379907912,-0.8279624292905802,0.05100695075683318,-0.07078469772204594,0.5520737882532852,0.0775967520376727,-0.10323037081627842,0.03090467922581633,-0.025227283548882814,-0.20137868821487748,-0.3105903909022808,0.035238176225431773
282,13.0,Inhale,3,-0.059560364898516835,-0.2064142902052775,0.22338155494379677,0.16853319639877679,4.765453436045582,-1.40489372072621,0.010201303413823783,-0.07747445798189302,0.5061214906000092,0.07805174646751176,-0.14021608244713052,0.03182689018346003,-0.026922693557167744,-0.24614102708008995,-0.3777513599701245,0.06286125705708487
283,13.333333333333334,Inhale,3,-0.06191195235586086,-0.2149042188612775,0.18551408749409387,0.14970938774380205,5.82126561495605,-2.251901853051834,-0.026056867751753546,-0.08512349604968081,0.43891959171690503,0.09795204367361121,-0.1639420410469386,0.02946269059939005,-0.010688577636582687,-0.279315014021737,-0.4018676723332205,0.084771804176716
284,13.666666666666666,Inhale,3,-0.06541522677643877,-0.22164874629926545,0.18341148575047492,0.11060480018999001,6.7576846605727345,-3.102468440082664,-0.054754256527479755,-0.09231647430525868,0.359388980680387,0.13389829100486778,-0.16798355620725974,0.024601015813157556,0.014938711416730135,-0.2891883081929242,-0.37615104062152405,0.08765823604094354
285,14.0,Inhale,3,-0.06883463101814669,-0.22700217947002072,0.21659171678495023,0.0570252850907181,7.134387363210771,-3.6631737520860765,-0.07284991636634457,-0.09762454111574152,0.28164489597555165,0.17813106298320638,-0.14850446938252054,0.01878109964934447,0.04306603533326643,-0.2717866352062564,-0.3074291991882652,0.07024284494349398
286,14.333333333333334,Inhale,3,-0.07229004759655709,-0.23121213517404435,0.28243884623686416,0.00044065619778750696,6.735182611096001,-3.750102753198051,-0.0773343935402626,-0.10006946267047363,0.22200103836071794,0.2198146950638662,-0.10505399165857429,0.013808784742114992,0.07355078022149227,-0.2362183218099527,-0.21301267324794718,0.04240034755012164
287,14.666666666666666,Inhale,3,-0.07692196556377995,-0.23415119992793543,0.37135077484459506,-0.04484294741543601,5.637862584613864,-3.351409997917734,-0.06599844314912968,-0.09946630577614751,0.19378681535207573,0.24790128414533222,-0.04044367599959777,0.01114851130736514,0.11236501656777884,-0.20035124048486355,-0.11502411966748617,0.022193141260375204
288,15.0,Inhale,3,-0.0839491332006902,-0.23532472564805654,0.46722772175368277,-0.06775591809780687,4.136369755591196,-2.6091323411664926,-0.03856805842966254,-0.09647901346932429,0.20235294994898603,0.25459152003143254,0.0400699262426732,0.011506213614747603,0.16569754535705963,-0.17946863503893862,-0.03184153639101398,0.027368762300180927
289,15.333333333333334,Inhale,3,-0.09378800485194445,-0.23419762548526427,0.555318711406336,-0.06685797300711553,2.6330307683057463,-1.7514837286164586,0.0026212710248317878,-0.09229534499965783,0.24317110140272885,0.23819078238780136,0.1300603169695279,0.014797313841391812,0.23397044225729594,-0.17729731565867293,0.030986665061732834,0.06217442687577465
290,15.666666666666666,Inhale,3,-0.10579240080465617,-0.23057017974597216,0.6305603688917617,-0.051563457768182185,1.524867944315626,-1.004026764834284,0.05308873826585915,-0.08807145480118428,0.3043232802702977,0.2041865971630742,0.22338443544177042,0.02036187332314738,0.3098363660309517,-0.184522270279211,0.08266882476137172,0.11186203386933156
291,16.0,Inhale,3,-0.11868745176592042,-0.22470909434519595,0.6983004655515621,-0.03585995927975038,1.0570419341438673,-0.49976593658325846,0.10764321470159187,-0.08451483048937156,0.3716368966349158,0.16361846485786954,0.31542274580165525,0.027203714436660517,0.38131461308054126,-0.1843155296649759,0.13811824496120373,0.15411897509317152
292,16.333333333333332,Inhale,3,-0.13117462999093807,-0.21715387907422395,0.7676499917141856,-0.02935758501969364,1.1927277166321626,-0.2177224394521281,0.16191862636810891,-0.08186548774104124,0.4331124497261777,0.12907544318029948,0.403875978710468,0.034202923576639746,0.43819936987534147,-0.16151789868675695,0.20540910056136485,0.17799565856396377
293,16.666666666666668,Inhale,3,-0.14226314632294557,-0.20833974992933793,0.8457539455845668,-0.03351014918882297,1.6065135202921978,0.001073866832569162,0.2131500670533263,-0.08015704854219406,0.48081704660229424,0.11001685679773447,0.4889528369126004,0.04026228255012182,0.4774021964741779,-0.11035475220517227,0.2816453544109736,0.19075499147347622
294,17.0,Inhale,3,-0.1513735608864139,-0.19827710922865072,0.9376342268335698,-0.044862453851750445,1.870626206447431,0.3297227456677558,0.2600400267474009,-0.07939918636872242,0.5112177443463611,0.10921693441864203,0.5726277363516629,0.044399456472386134,0.5038100284084962,-0.03670490774377007,0.36005144538175976,0.20618001547426668
295,17.333333333333332,Inhale,3,-0.1582271716078316,-0.18645104879072788,1.047646584148306,-0.06009205625679042,1.7563043436402876,0.7906000522953466,0.30250499487987226,-0.07948650994701902,0.5256461337375008,0.12179101893518758,0.6571498302849111,0.04602776362163097,0.5271155475805687,0.045244688714542715,0.43919848906117565,0.22837246090684216
296,17.666666666666668,Inhale,3,-0.16247838260018108,-0.1720044585801781,1.178534373995012,-0.07823654378548607,1.4015205358748428,1.2070463259296398,0.34178467555441056,-0.08000989252847614,0.5303021191935605,0.13788195620391322,0.7434550954499213,0.04543528549716326,0.5571037263189347,0.11932616641751727,0.5244200685007788,0.24752187022531472
297,18.0,Inhale,3,-0.1633364942074601,-0.15423317647242415,1.3294041727167794,-0.0997755596046561,1.1625562725870402,1.3492866181816363,0.38015604302535105,-0.08027269468839335,0.5340345349625361,0.14811290935310611,0.8298649141617224,0.043901013640730464,0.5988916731049982,0.17398358132441913,0.6210401063912586,0.24844172337769038
298,18.333333333333332,Inhale,3,-0.15934974079697753,-0.13317273342040842,1.4950439276343284,-0.12400571254355408,1.2820220571130156,1.1430408433588153,0.4197687461188255,-0.07958189887145804,0.5447396147510419,0.14816364531171283,0.9116609433818456,0.04303816095097159,0.6494450991178365,0.20712086454972686,0.7267486117499173,0.22146179167701674
299,18.666666666666668,Inhale,3,-0.14844141126235066,-0.10978592938641124,1.6661395790053757,-0.14687731815812186,1.6813824219752755,0.7388834181357569,0.46122148948913216,-0.07763572413111304,0.5667386572169426,0.13933045471267813,0.9820423837805673,0.043788008144472576,0.6972915727149953,0.22711737314572375,0.8290500953586699,0.16856130096018807
300,19.0,Inhale,3,-0.1285152018742318,-0.08556018466901388,1.8290702803232852,-0.16148399876005096,2.0436633445578187,0.3951573814623434,0.5025002823635182,-0.07476314345058159,0.5994453183367663,0.12599691831701598,1.0337854221608591,0.04586785059154785,0.7261053551062666,0.24879571461330566,0.9086597367957024,0.10335793347140201
301,19.333333333333332,Inhale,3,-0.09865878829609895,-0.06185116262301521,1.9665494807563924,-0.16085262137721362,2.0904751248188194,0.2977829099929208,0.5387555463427126,-0.07184839744131538,0.6368550550618505,0.11301568412729486,1.0607691423964938,0.04798099939216541,0.7211639066696239,0.2856456601396511,0.9472982869085211,0.04451566934463218
302,19.666666666666668,Inhale,3,-0.06037126217150232,-0.03938003120278023,2.061527624982476,-0.14111586581353378,1.8009753959599613,0.4632411305481005,0.5633744290302249,-0.06997839780509679,0.6688604675704476,0.10394373094407437,1.059271619940939,0.048433360194231674,0.6763270333633654,0.3418897686655246,0.936636141492844,0.0045949622388440905
303,20.0,Inhale,3,-0.018067392336962418,-0.018098396668787622,2.1034712009454806,-0.10399257762906061,1.399988956671472,0.76879576785411,0.570130879815807,-0.06999944338241801,0.6851152016512434,0.09961235172740512,1.0288308869212968,0.04574552748480898,0.5979413244585423,0.4084441653306585,0.8827683484900253,-0.017907273238139673
304,-5.0,Exhale,4,0.01640889651970055,0.14745952131709916,-0.2842974007329122,0.10973137915717238,-1.629640683180042,1.3480111775752288,-0.11163871574404224,0.037349559906836666,-0.30261747973423286,-0.14507744917075807,-0.5182521622559261,-0.08214785781695767,0.14307679105905557,-0.2366975393125285,0.48404728264770275,-0.5221114542404529
305,-4.666666666666667,Exhale,4,-0.005108770445113705,0.12515148578211624,-0.2679509268514704,0.12180204524242988,-2.2434251590487575,1.191361885566597,-0.11178212451408392,0.029275958982887856,-0.27382326018768094,-0.13078746615190717,-0.4627741482231999,-0.07287685122927581,0.09873025046331795,-0.2153942584358469,0.37997482075929323,-0.444004718333276
306,-4.333333333333333,Exhale,4,-0.020592856973592474,0.10023691643296385,-0.253006939868343,0.13789213223251567,-2.6375107322919082,1.1581610251039252,-0.11549770042617348,0.01984563219465852,-0.24476555635103772,-0.10788919602752393,-0.39824937730201926,-0.06271000828158312,0.014686643155839908,-0.1482536337485394,0.24668744256162534,-0.3582985359660341
307,-4.0,Exhale,4,-0.030192149561857336,0.07363067047087109,-0.24511211350028936,0.14755265168125936,-2.5930601132804156,1.185422331932321,-0.1204272499807262,0.010011654796088548,-0.2158561125682959,-0.07918766462544144,-0.32925042370902685,-0.0515075339283668,-0.08092277457839003,-0.06589027865341153,0.11681257928311929,-0.291593964594109
308,-3.6666666666666665,Exhale,4,-0.0352095422644726,0.04644237368439142,-0.24370498090286333,0.14113123036877073,-2.087866636199725,1.1751580459480937,-0.12312414172930622,0.001144273308655654,-0.18570325164734303,-0.04754121535948295,-0.25930060775363906,-0.03901220301091859,-0.15751076579672965,-0.0008812562675054939,0.010500431634169376,-0.24677201367711382
309,-3.3333333333333335,Exhale,4,-0.03684292391891392,0.019880315334225854,-0.24383040073990256,0.11611149641436547,-1.2489661393136404,1.0095119266046069,-0.11972666058869752,-0.0053016940274882495,-0.15123577350787268,-0.01612840857986285,-0.18996284810892572,-0.025296106613500038,-0.19489239685626805,0.028274190103459072,-0.06780539005445173,-0.20620466034368162
310,-3.0,Exhale,4,-0.03525758065080659,-0.004618762222661728,-0.23729441006463659,0.07800364534201297,-0.26147221818048066,0.5894972117834754,-0.10699062096030312,-0.00829467494696435,-0.10940926489501938,0.012137147498787429,-0.1209788434153001,-0.010812738228427788,-0.18847395754150137,0.022574295677673408,-0.12294615419181514,-0.14742050649195804
311,-2.6666666666666665,Exhale,4,-0.029765843614809467,-0.025342134625405202,-0.2130661433131272,0.036520326972211845,0.6870823489637068,-0.09358648835900978,-0.08318269808598205,-0.007676158419962131,-0.058836822163535675,0.034983527017269984,-0.051209107015104526,0.003803180824509761,-0.1463684537304201,-0.0028966977755866203,-0.161229458126357,-0.057559127720625804
312,-2.3333333333333335,Exhale,4,-0.019971490802246486,-0.04078206619939324,-0.15953765269349057,-0.00010875249731552102,1.4173809822765784,-0.903163567585773,-0.048463743476341865,-0.004363027346156739,-0.00036048758505730766,0.05055149018912809,0.02044528764608787,0.017798992278193173,-0.08406682237343689,-0.027095617924792856,-0.18660049774327564,0.06160939927807925
313,-2.0,Exhale,4,-0.0068195213663673265,-0.050504074026865374,-0.0689829668697781,-0.03000148103364296,1.7962373113986305,-1.5913209715415808,-0.004723482594025989,-0.00020237247758346367,0.06308688884213975,0.05776414888114458,0.09463078036040831,0.030340212312241523,-0.019277874454878954,-0.030237712398687208,-0.19947377021449225,0.19511686403349748
314,-1.6666666666666667,Exhale,4,0.007513869818270545,-0.055618936705203695,0.05811306131170677,-0.05869594921734962,1.8211613173864725,-1.9271982633356288,0.044898171917308695,0.002552301772875241,0.1270268381349832,0.057640671511904544,0.17158543942982177,0.04071893137352479,0.034594980237365694,-0.0024537928766210685,-0.1962675870224313,0.3180005765895427
315,-1.3333333333333333,Exhale,4,0.020775882031835034,-0.05833233139866211,0.21032365545344206,-0.09431263667274838,1.6417646641261996,-1.8215708537385993,0.09651891176794271,0.001978104345162061,0.18650473722010755,0.0538930294332022,0.2512375935482055,0.04846244521020368,0.07391288486068645,0.049673465192124504,-0.1711545390271399,0.40144667795440964
316,-1.0,Exhale,4,0.03171969122588836,-0.060942549444012964,0.3644383625363909,-0.13869171852969467,1.4534573164853286,-1.3497121721417176,0.1459469989166138,-0.002933762104292462,0.23744516807145669,0.051721134329531585,0.3328437743409596,0.05313075456659693,0.10297804090610116,0.10735110827706512,-0.121747606503308,0.4238190624586504
317,-0.6666666666666666,Exhale,4,0.04039859721001369,-0.06506025641793446,0.4887538088915998,-0.18127549619590974,1.3593165586949438,-0.6770040209470898,0.18918178271081862,-0.01205454106145005,0.27809751753313905,0.05562065720808018,0.4140905259999089,0.05418787175488167,0.12558488180710994,0.15299870308881286,-0.05588563398330432,0.38193064398756643
318,-0.3333333333333333,Exhale,4,0.04781219701058899,-0.07142552329714019,0.553001969331347,-0.2021594469771271,1.3187100685135529,0.03465297685487473,0.22308745428438903,-0.024156864437619892,0.31044994318794433,0.0673197618754122,0.49034543348424486,0.05128332156228226,0.1393209826420737,0.17974862117805476,0.006398661085028751,0.2948481877692798
319,0.0,Exhale,4,0.0551315457818827,-0.08017464868438874,0.5421530780123266,-0.18349942628695032,1.2068311136495549,0.6717797562802797,0.2459238185026095,-0.037174390485647225,0.33999691565030554,0.08497983197051566,0.5547986829735048,0.044637589226595935,0.1386275902000747,0.1891804038763299,0.038689418895636464,0.19719356929622558
320,0.3333333333333333,Exhale,4,0.06265003112521927,-0.09122520288315764,0.4663796205194774,-0.12137073826479394,0.920117271551969,1.1705612444761397,0.2573294355915764,-0.0487817402019336,0.37226994808310726,0.1046657311716917,0.5996701175125677,0.03512690542788201,0.12202849096662596,0.1830972873040691,0.019747447135254496,0.12415536857420503
321,0.6666666666666666,Exhale,4,0.06900109948682877,-0.10448217026619926,0.3606762862072244,-0.030313245675254365,0.43031014597097483,1.5239259912456085,0.25797056632552023,-0.05717310601258526,0.4083632827357136,0.12285136230301086,0.6182916525932796,0.024070160240391287,0.09555204640425133,0.15930668895856692,-0.05452202886324248,0.09472513834610308
322,1.0,Exhale,4,0.07129080765576103,-0.11972157910281284,0.2729522288701967,0.061358087437503615,-0.24104812554192945,1.7889074189327039,0.24924589092903993,-0.06165033744373578,0.4436985225816548,0.13726363454766485,0.6072785021586121,0.012856757626708612,0.06988265056935605,0.114325739117571,-0.16644557308247007,0.1038309874040637
323,1.3333333333333333,Exhale,4,0.06635321163273263,-0.13623189029019853,0.2450466053634675,0.12256905058451366,-1.0662490673572846,2.047952097189685,0.23293589172285467,-0.06270798962793288,0.47091241391777955,0.14585090912773196,0.5676193875474843,0.0024863279459026778,0.054363494861979236,0.04892924578469806,-0.2843581142103635,0.1298635673128189
324,1.6666666666666667,Exhale,4,0.05273821146318425,-0.15237634250338603,0.295744137975824,0.1320416943750555,-2.0161870247257907,2.3425300780242777,0.21066718186241556,-0.06165007764245963,0.4836988390965561,0.14624017852264387,0.5043680147138702,-0.00681429007891089,0.05236450290994956,-0.028350400952392392,-0.37771221554468226,0.15123354615398582
325,2.0,Exhale,4,0.03222495433336086,-0.16533950452280136,0.41490928797050874,0.08650265178303891,-3.0287112223143775,2.6507550482977646,0.18330935975878548,-0.06005589862868059,0.4782804535013974,0.1368463559991144,0.4251832309188488,-0.015607397942361356,0.06100820745874461,-0.10281637668155504,-0.42837670196432376,0.15873234678786438
326,2.3333333333333335,Exhale,4,0.009476690362646839,-0.17158158557043793,0.5710846112904634,0.00011374662170136678,-3.984626339066964,2.9326828906782585,0.1506594453913245,-0.05930657268558659,0.45274817865870814,0.11826484328039463,0.33792642133726186,-0.024777973331364615,0.07490898040785171,-0.16042970438327017,-0.4328025500297433,0.15641083928962232
327,2.6666666666666665,Exhale,4,-0.010197811757258446,-0.16819307938608982,0.727057676118657,-0.10363651637450014,-4.725494896094647,3.178133174497175,0.1121365711572125,-0.06015852735328526,0.4072060052957297,0.09315495476900523,0.2484274266491067,-0.03492666835908135,0.0904680866734973,-0.1953421731248155,-0.3979920813306588,0.15399156712868942
328,3.0,Exhale,4,-0.023432365487205075,-0.15428953992125316,0.8545886747291529,-0.20168606416930968,-5.0973776955179675,3.3819962300707145,0.0683946814106152,-0.062457757316008215,0.34524504986777305,0.06477270443216344,0.15976501344485447,-0.04613146095834187,0.10740143069063668,-0.2121366396702736,-0.3356467270094939,0.15835848165982144
329,3.3333333333333335,Exhale,4,-0.03000614490119967,-0.13131069030566395,0.9417792526779444,-0.27819002851425556,-4.99585957285955,3.482274602944439,0.02236324764245524,-0.06522442918129377,0.27388469110864555,0.036281153752368414,0.07296270598454961,-0.05811763685719073,0.12747386130927757,-0.2215166741869429,-0.2568423734766638,0.16924282910033125
330,3.6666666666666665,Exhale,4,-0.03212191284912352,-0.10217195479759492,0.992221746882388,-0.3272710065565949,-4.40760230713826,3.3625304360321917,-0.021276328721125032,-0.06713204137047434,0.20084675610363367,0.011838902824483726,-0.011741045740737052,-0.07045516561166332,0.15301829443843937,-0.23391550721776486,-0.16914133682965013,0.18048268174056992
331,4.0,Exhale,4,-0.032679407441568074,-0.07018837021061056,1.0179818757332117,-0.35129478935774966,-3.4266765382049584,2.9327860351950443,-0.05771368940641935,-0.06712392412085078,0.13168933953972894,-0.0026937408434224964,-0.09369485880114281,-0.0826162287963679,0.18614128144932005,-0.25549545338740004,-0.07742591908615436,0.18501082527379717
332,4.333333333333333,Exhale,4,-0.033819500083263204,-0.03848542795168555,1.029399518830732,-0.3551382871269356,-2.2317806681255736,2.2176913899601174,-0.08374852070473837,-0.06481821117189476,0.0695077591845326,-0.0018568851569055456,-0.17130352157578083,-0.09399400916442616,0.2267045938076613,-0.2863878644093982,0.012866247455565614,0.17939463829033378
333,4.666666666666667,Exhale,4,-0.03624858168126927,-0.009851869830576634,1.0278073274196429,-0.3406427798731282,-1.0459086026766757,1.3873994542715034,-0.09872407894897937,-0.060497360209564324,0.0170742720512705,0.015505459193156556,-0.242303304108559,-0.10386306380906044,0.26924805637751736,-0.3199966575645311,0.09338318993282291,0.16496106125723003
334,5.0,Exhale,4,-0.039257797883493796,0.013332674834345862,1.0061894046011848,-0.3060464116396591,-0.07710835128413125,0.6909745899610924,-0.10440431785636248,-0.054809360136397645,-0.021449035477550945,0.044057543825596526,-0.30453814171751376,-0.11129447852828037,0.3023926876181848,-0.3449618181253598,0.15387475561663516,0.1451178296730536
335,5.333333333333333,Exhale,4,-0.04123024393206775,0.02927394602063447,0.9556983748702477,-0.2503160624347321,0.571794387043058,0.3083617836457568,-0.10438502745308878,-0.048492727620925206,-0.041479411436614363,0.07351532172071207,-0.35691605237803337,-0.11531843268056734,0.3126417078272242,-0.35055235829096487,0.18633006914151676,0.12025189298692525
336,5.666666666666667,Exhale,4,-0.04036009523418707,0.037034647678168664,0.8722504571926603,-0.1779368340465114,0.9539728369794477,0.23744130195708862,-0.10342539098933932,-0.04227519009586087,-0.04069225528703024,0.09269564729479475,-0.4000737325059991,-0.11543215474664786,0.29094483632509416,-0.3332039472971116,0.1889354553903678,0.08466691631981806
337,6.0,Exhale,4,-0.03541664785400035,0.03679710318085815,0.7592996311682304,-0.09966500997170163,1.195250909336817,0.338000053927372,-0.10660306094068535,-0.03686172793969173,-0.021296970760507662,0.09377092084382899,-0.43647703548010613,-0.1119869681329905,0.238229164169151,-0.3005337985793854,0.1656794818594606,0.030921633849705876
338,6.333333333333333,Exhale,4,-0.02640610261774169,0.029905982557020847,0.6259744398452635,-0.028054719656983192,1.3437711781112143,0.48770282098161616,-0.11820173334739982,-0.032877767524441305,0.009345479576873456,0.07521357713449989,-0.4699970538574825,-0.10601635517254547,0.1656418220281647,-0.2688592701877612,0.12140767251676082,-0.040176569796722406
339,6.666666666666667,Exhale,4,-0.014770073080394814,0.018543044236596126,0.48301140116674834,0.028974157377419478,1.3501979880446264,0.6606603614455291,-0.14043370073986683,-0.030772853768825093,0.04049015369740372,0.04226850492652945,-0.5047777870007504,-0.09874436479622818,0.0890247747167974,-0.2542663913741325,0.05785398010089067,-0.11408239069459718
340,7.0,Exhale,4,-0.0029529871706163767,0.005117057901083682,0.34071361965916,0.070818236021059,1.222921142326342,0.8424634969627068,-0.17265565441465575,-0.030822089497089176,0.06131925394377794,0.004600146840349204,-0.5435331280507438,-0.09133874046098636,0.022354242483568747,-0.2641170265434273,-0.0243036697036696,-0.16888554913036008
341,7.333333333333333,Exhale,4,0.00643644631765979,-0.008359759757337892,0.21012040397503665,0.10034009681309637,1.1531154595744513,0.9205855576308,-0.21181371212113675,-0.03320745744318941,0.06352061102456678,-0.027401783494540612,-0.5861137400340038,-0.08499465303433798,-0.02537968775991464,-0.29546616103046575,-0.11903639338902423,-0.18931251694541773
342,7.666666666666667,Exhale,4,0.011605967037419571,-0.020607637079574127,0.10322434298231926,0.11774769112085476,1.4240576792997603,0.7171481330374807,-0.2537859403616035,-0.037947530108071524,0.04221292286314522,-0.045535370585837454,-0.6290137435706085,-0.08092095659329024,-0.050005451061739065,-0.3391999130305502,-0.2108241430593195,-0.1770906619910626
