,time,condition,epoch,S1_D1 hbo,S1_D1 hbr,S1_D2 hbo,S1_D2 hbr,S2_D1 hbo,S2_D1 hbr,S2_D2 hbo,S2_D2 hbr,S3_D3 hbo,S3_D3 hbr,S4_D3 hbo,S4_D3 hbr,S5_D4 hbo,S5_D4 hbr,S5_D5 hbo,S5_D5 hbr,S6_D4 hbo,S6_D4 hbr,S6_D5 hbo,S6_D5 hbr,S7_D6 hbo,S7_D6 hbr,S7_D7 hbo,S7_D7 hbr,S8_D6 hbo,S8_D6 hbr,S8_D7 hbo,S8_D7 hbr
0,-5.0,Inhale,0,-944546.8789072438,628803.2488595161,-1606192.1108392673,352927.3661898122,-708226.9325439703,-119598.91460529093,-999538.241824585,-150718.1528106809,-1515475.6768691305,141373.87413252212,-745701.1265795433,-358650.6151504556,4032093.788686323,-770455.4080369292,714242.948057283,-270287.99599718914,-338504.5445478878,482362.891552086,383912.0688353862,333740.66538623825,-35082.23837282526,13276.025938625036,62542.48477515678,-368013.05235708924,567639.4406358711,-214809.43882715175,468223.09072707477,-177187.72193195153
1,-4.666666666666667,Inhale,0,-593739.939452548,619559.7080193384,-1187817.7957740866,231106.10053555996,-730464.5900165794,865.3262484896729,-777323.6297134169,-68423.82083729537,-1257050.6275802073,424887.8921370742,-171229.7757590886,-131670.0729567639,2931472.44342559,-84017.4977278354,674327.9075562167,-255183.11279669893,-123277.63684881998,472725.56008163176,952002.2863171706,253960.86604624602,304912.48761655897,-115386.76784497534,348051.0518624897,-315422.5038818128,190419.51890766073,-72059.66863836988,157069.45165373164,-59439.14103084702
2,-4.333333333333333,Inhale,0,-1008785.8178129796,454249.19782571594,-1543521.3818738544,183761.31489953646,-1128449.8211060744,28361.773484683494,-1285318.2558398477,-174383.07852129254,-1224840.9541757104,-3988.9165284070496,-733157.4658389554,-130105.11590262096,941695.5656676352,750194.6411538643,135656.63274159268,-51335.97679498736,-738776.0581371807,346440.72691869276,356534.3980222461,81005.50343991908,-505263.1132935804,191204.62402167136,-1081693.6905411575,38677.538998756034,-93856.40027901632,35517.688220690456,-77418.3939261346,29297.121665019076
3,-4.0,Inhale,0,-1143626.546563848,30664.712182672414,-1326819.2331908776,11921.755710337933,-2053176.4705454872,-16294.505763823297,-1827091.0564785306,-264711.2010937076,-1902497.675660186,-115607.69518126234,-1143896.868461362,-187815.57125503378,558729.5115063764,433278.37232775334,405096.758688964,-153299.0859606157,-1448182.5041030513,252785.98431718413,-79716.93034951843,49613.79231437313,-1596789.4862289738,604266.4214412333,-3208181.320727753,313913.1015322489,93588.8989688265,-35416.45880952959,77197.742785176,-29213.621569054383
4,-3.6666666666666665,Inhale,0,-305593.3987510444,-398623.04628488765,-1188.0265805486179,-287694.2471492787,-2645973.4104988636,-16896.765991350814,-1403035.9941159154,-131909.1534952108,-3072942.0257164114,702361.0080962497,-361823.3460388542,-75544.50266899593,993737.2097637267,-688141.367931064,687926.8094326223,-260329.28882256322,-1251273.712777453,201791.2677064201,531753.5914478431,78106.42579421701,-1552901.6597425449,587658.133320287,-3694030.8697683793,195502.64401480288,559772.8774734576,-211832.5279618265,461734.277135867,-174732.18712164962
5,-3.3333333333333335,Inhale,0,441755.0731376281,-678873.6044733286,907170.0656003458,-572375.0518082506,-2494746.905739898,-6048.227031757891,-672049.2989415528,-44336.44172300899,-3302885.7107621226,1201983.4236539358,396075.4309957062,63242.04226211028,-1151176.736082197,-756403.7549912203,-392555.53710123705,148553.16349890534,-769738.8127711768,96669.96131031758,905029.5063510991,-88268.38648659785,-1152996.5438010402,436323.6991885208,-3299904.7644219305,87868.87404803978,772423.9371030382,-292305.1863342945,637141.6383203034,-241110.86718653786
6,-3.0,Inhale,0,359447.2971870635,-761552.0831091746,634264.5537872254,-618831.1204930024,-1811873.603307626,-45708.78759764474,-303381.18056671525,-143318.97530946636,-1930937.5979416089,688631.6535229726,375191.47859133326,88562.810039849,-3862873.500566163,654634.481870506,-1240799.851888057,469550.7408405465,-834225.85537788,-57709.14721329112,457529.9739056925,-310013.8715016101,-1157688.5379308872,438099.27106366,-3146570.4493442215,245421.36015010564,559289.1132328464,-211649.45906701215,461335.2393458388,-174581.18090606533
7,-2.6666666666666665,Inhale,0,137175.8387221258,-631242.7040475748,252756.51712419078,-384753.7989344627,-843542.1706545649,-38267.176321571395,80814.594486311,-104023.66014641529,-388371.75897597196,117535.25518540209,313215.7750920932,80227.9556157397,-1677548.9255317561,1287897.430852395,-7723.857702002901,2922.9074299167432,-1093301.5907459466,-224345.27239724057,102228.852372095,-362382.06899411243,-888194.6562545493,336115.81934050773,-2342884.842067031,360915.6281453668,164360.55263431236,-62198.282129845014,135574.45173619298,-51304.87737801825
8,-2.3333333333333335,Inhale,0,307211.80410545145,-403683.98777560354,469504.4159365516,-140473.03122033758,152340.49037323415,87544.9814228002,603700.6646106926,187550.64394317343,191796.8851810782,44654.67903612486,481837.26294533623,81620.47510743476,2776731.55847755,-138458.16677006573,1445451.0205741883,-546996.033668583,-770827.4505256199,-324302.6170708461,58346.168263550106,-355786.4964552131,-166088.2176678828,62852.07524176501,-571045.6683197252,272880.7381273937,-204953.942241755,77559.87016872146,-169058.3166413422,63976.0374756706
9,-2.0,Inhale,0,608855.3342356493,-219626.63914376247,851350.7646763924,-62313.067330269034,980413.6910273907,215362.72180415207,998903.8329391171,396185.49987376685,715645.3859461902,-41316.9376076481,556453.8376534976,82095.56805011275,1845692.87029655,-1495228.945981305,811174.5921326219,-306969.4359709374,287534.0440201379,-229562.5003050519,-92225.44966965157,-370748.2086275915,453540.33662422997,-171631.3882040911,1136206.1727713041,146560.1779501573,-506512.3502554956,191677.36758306032,-417801.79661651974,158107.00076026097
10,-1.6666666666666667,Inhale,0,790822.2504470628,-86077.68549674578,976678.7952715146,-1807.122724124255,1610973.8046389383,228449.10856881205,1307763.9875944068,356039.9873504504,1897260.9080456824,-374985.3926679387,554605.8831542253,99593.34851275382,-2641685.6386700026,-988981.6754105414,-467464.69700074947,176900.72614008168,1323910.0550872602,-49070.932005578106,-220905.4700445307,-268729.8088114576,921332.4364025585,-348656.01201915287,2240593.047885612,51850.74276174562,-675090.4716690029,255471.68677061706,-556855.1522973304,210728.3853267865
11,-1.3333333333333333,Inhale,0,723603.1547187676,64091.9898924559,784325.9529010176,158340.6666160006,1974930.9920241272,156177.259732202,1454243.951903643,253344.3283525112,2725308.589337489,-621932.7090538758,451877.0265231409,87588.1768952258,-2675357.920137513,-54774.17180444411,-264034.92016793106,99917.6395644924,1447133.5279814177,-70909.17859322499,-255628.58491531876,-60130.10117898232,1252480.7761839933,-473971.10456682555,2799388.562268253,-44647.17093865411,-645033.9844304782,244097.53498583185,-532062.7570834673,201346.30205028792
12,-1.0,Inhale,0,367168.8027944628,262021.42886986834,408756.36577027396,305787.0543757317,2076564.5919945247,59932.74430523509,1251415.5740553355,190720.9653726074,2514923.1379740085,-587940.8223286531,191604.18427341108,36718.785145386624,555149.3397170916,-3470.7805680127544,212874.52159260644,-80557.22215616656,961703.4511533849,-251741.7721479136,-433134.06203710893,105128.6086633978,1243142.6134287368,-470437.302372099,2959632.8962702006,-137572.82830812113,-491619.6936956401,186041.60133911372,-405517.43935659877,153458.28240059322
13,-0.6666666666666666,Inhale,0,56123.93911736269,436302.19463786355,166570.81515686234,349041.377644056,2115348.672953996,-55174.55696034701,951697.2159453827,77667.62201921084,2093706.9109231138,-431444.3701979518,62621.98525378548,57076.583998628914,218087.89798498384,208841.14199551684,-768711.020791782,290900.1228166145,882400.9829300032,-297094.04138879257,-665601.1205888581,220647.27295663688,1128161.5292595793,-426925.4876566753,3037029.8653592328,-235570.04973172536,-324104.39228937007,122649.48071808579,-267340.7614276306,101168.65535904696
14,-0.3333333333333333,Inhale,0,41331.101286343765,432380.9570332289,120911.89608983787,301425.3060299538,2001886.192570818,-185407.4932651395,626481.8355879643,-111501.48592227537,2129422.6561179864,-464638.3540260104,7213.242072094949,121588.2059927098,-2133229.4007192687,907808.6702169271,-1639886.136910353,620575.3081842447,1182043.6411459593,-203621.95421677988,-881670.013342074,319760.7004341545,1030168.4620527931,-389842.37773030583,2804350.8670716663,-303420.61212137627,-120847.49950475793,45731.81793569936,-99682.27306645838,37722.34909264638
15,0.0,Inhale,0,162797.98573574645,251606.31301042048,93248.40594442318,173936.49765873613,1503995.4688300348,-293297.488029451,-7283.99964228732,-268183.07705236657,2326937.5541558005,-679572.5881725341,-234887.5238768209,85471.9263139193,-711518.0638189289,737277.0308044567,-305575.169213979,115637.54369294066,1283382.4635168507,-144418.9765476136,-1118455.2145680224,374095.1070203835,721265.8117238327,-272945.62916214473,1956516.656926282,-308944.588389839,154524.39540950058,-58476.02595379242,127460.99871129468,-48234.537006185405
16,0.3333333333333333,Inhale,0,358179.97249370714,78545.00009888232,177540.06721989324,-20821.686758167478,903943.3965407253,-362994.8145567772,-757751.1633135412,-332512.10045893665,2397382.7620175416,-732046.5516889378,-376780.337136724,-4264.97227264544,2677929.046647235,-84440.95330390944,1722796.216352516,-651950.6256183803,1416968.6221754083,-95853.43994270235,-1130256.4208139137,406213.56419001997,439322.8849475552,-166251.13694318995,1190501.2755459489,-346664.0690690894,438931.6580284022,-166103.08656306972,362057.18423969427,-137011.79833935684
17,0.6666666666666666,Inhale,0,716986.3930413072,-54518.189914425144,454850.0248572189,-244101.84884878263,552709.6595643861,-437858.00296902534,-1301572.2740763729,-390672.7497555673,2370898.8303827187,-634221.7366548869,-283198.5238013186,-24435.930885893133,2875854.3554720907,77342.58141747974,1588228.5102785635,-601026.7268251217,1858183.694769225,-9647.69358777573,-877165.9525627856,449297.8899104034,444693.02209450345,-168283.33566720414,929312.380592738,-453313.355786445,697001.523304531,-263763.3951492115,574928.7031879744,-217567.8842172868
18,1.0,Inhale,0,1096725.7568336166,-220308.4347678128,645510.4385164306,-421773.0250956556,318756.1625220987,-553617.8173641945,-1812560.8237578464,-498831.0064836043,2203323.2496976987,-665504.7197961113,-300153.87883557397,-24209.582971177257,1024906.9994700997,850398.4788513274,-81153.7542424583,30710.67857443255,2224475.5272341934,39278.66108329259,-664552.7076967519,469812.9920622383,449789.23123531346,-170211.87295216607,653488.6479453495,-547002.1659143626,964415.8226521289,-364959.8791582593,795508.0723820612,-301040.8198898873
19,1.3333333333333333,Inhale,0,1323397.810326005,-315152.6085202656,604213.3186526498,-480078.50278588047,125723.50333575733,-670005.6646312609,-2361771.439818399,-557763.2937492152,1927565.4639092544,-699502.2702059752,-331141.69958204974,-82672.85097968424,1061166.694195245,620855.6477274536,-432643.98163141316,163723.66726681538,2406866.478256504,58692.37140079531,-436988.26619755814,465768.5054363192,437216.14829930244,-165453.89333259306,423582.68144950026,-639595.8712805092,1215993.5184589936,-460163.38298308826,1003024.4601734602,-379570.38569837477
20,1.6666666666666667,Inhale,0,1462855.5558026342,-236340.3542026179,519396.7871104781,-441133.8435429585,191226.9490883125,-735665.0568490499,-2675235.07424397,-508038.1530234246,1852077.4549179673,-588916.2358494197,-30368.76617224027,-167168.6634667646,2291166.5132547477,-99575.99507329929,665788.492951422,-251951.5775511665,2741137.8611293053,114385.7479766368,11511.600882614326,475605.8403280463,776237.4103387453,-293748.30319176236,826064.5312772742,-794110.9483857873,1377437.7182572405,-521258.0418068502,1136193.3289976865,-429964.928313902
21,2.0,Inhale,0,1551615.160149843,-92616.40208266342,428610.01768199005,-367705.95177860575,486192.9200006554,-768666.1981400764,-2749325.2858016384,-457333.44556722976,2086508.9948631187,-613033.9882354572,302872.7940796265,-236814.05807427847,1978722.6679775252,268293.6690968734,924732.1028051391,-349942.5336733207,3179304.788125567,152938.8975153595,449646.9211780415,476598.515284935,1310760.2395629336,-496025.5601373468,1553581.0539317203,-943325.9396164393,1445397.0357447949,-546975.6044135372,1192250.2542213486,-451178.31798989273
22,2.3333333333333335,Inhale,0,1491569.970742549,79073.35879038357,203952.08591646873,-216939.10850409613,860290.9503933673,-793751.8209859951,-2660913.7590947645,-462240.06091723836,2316566.397463481,-756982.2740082059,391003.1514461092,-257549.58416498307,910790.7335830672,1197108.2678028445,-14779.029649960585,5592.766883784406,3522663.3978216434,141500.43938817424,801560.2633873527,453143.77485096257,1732279.328045701,-655539.2802384079,2228674.6637333687,-1035907.6418412243,1422496.3839173568,-538309.4057393958,1173360.421678532,-444029.91701987607
23,2.6666666666666665,Inhale,0,1311659.9667569704,415787.7788680939,-83119.17385517797,70927.04592506571,1480844.1249987101,-755605.3309697703,-2156734.908953059,-383093.68989019596,2300313.9621025994,-558901.7219260919,679168.3089844976,-194367.8198311386,1223584.432804981,1222510.9807842781,-475709.59520117915,180020.80876442778,3997681.768024146,156256.89976425483,1446721.54141758,457786.75906187383,2362390.618653957,-893989.6821036971,3452140.9500421267,-1148895.94758677,1231662.433073677,-466092.9053426328,1015949.1216821914,-384461.41173879855
24,3.0,Inhale,0,1082497.134039773,840799.7783463425,-349994.8814529592,389798.85903443926,2304632.9255286134,-613701.5895550295,-1373538.6356020323,-146507.57833050078,2165227.1798175094,-227609.6019922731,1190218.4130624381,-154535.19145305373,2117917.6189348954,766425.5884655457,-80031.81622662004,30286.108225143882,4599294.055565476,151997.53290741725,2176902.537143513,460990.78128143266,3211571.2096964605,-1215341.570584902,5133165.96622909,-1254841.2025858168,891746.9530847018,-337460.100294239,735566.4258495574,-278357.35124366544
25,3.3333333333333335,Inhale,0,779226.4019608195,1061703.6472308289,-676777.5701322218,587254.4149254872,2823562.6317429566,-450967.7695984018,-954955.3256826941,72333.81957220197,2057381.8473034517,-379402.62740006705,1234774.6953982848,-271412.02073066594,1934375.175418072,1157535.0621939865,223004.9010955797,-84390.81964844464,4797302.3711859975,-9984.769316859432,2366121.751550944,380590.6588754211,3519945.721605798,-1332038.4579217632,5970131.7583805695,-1209968.3789308765,584854.3280907967,-221323.99727559538,482422.96345197567,-182561.3208630552
26,3.6666666666666665,Inhale,0,615389.3684647304,1153148.7647776685,-865053.6672188732,743628.4475411916,3210947.449644613,-347122.93859844445,-566214.0091957655,170448.65615214876,1946505.2926843883,-508324.86877807014,1218269.380157085,-381605.2353164942,1304715.6797152706,2345848.5813609017,110826.2184448212,-41939.50611465469,4714669.619174755,-244248.15865292327,2582069.2131641298,299583.0169984777,3603988.74330057,-1363842.509992855,6452689.322857666,-1145496.342800348,351199.2406674742,-132902.87179444692,289690.21909774194,-109626.26791470332
27,4.0,Inhale,0,687989.7160957566,1423840.1193915266,-774529.7623480806,1012281.4003939271,4193429.398392334,-243177.25841322058,601937.5633967785,314404.76967270905,1777337.8238737986,-13222.156257170825,1849149.0070263438,-357908.978253957,1679040.7547345278,2983268.5295141987,-287949.1569220218,108967.40497785306,4876471.332297338,-384064.55593784305,3471912.4423732613,264809.2183460762,4507328.941938114,-1705689.794110332,8171726.228339631,-1243667.3004230459,33900.810509566174,-12828.943093150081,27963.42385434114,-10582.082490792733
28,4.333333333333333,Inhale,0,368923.32399312424,1614360.2297451466,-982064.587732894,1163674.8995577923,5105020.574490102,-78248.2337394379,1479254.4420559884,556154.4507970364,1718752.9791990728,-78151.4055257595,1650908.1149771342,-536895.2448288227,3002435.29576862,2351119.3472007164,-735863.211780311,278469.6627123082,4587080.63168989,-507384.5915784685,3683759.995540921,97343.59631801826,5022305.190369381,-1900570.1195699486,9238840.336903961,-1148224.221867663,-332778.2753574531,125931.90230637453,-274495.50094712817,103876.1937559851
29,4.666666666666667,Inhale,0,-409039.28930791776,1382741.1586072526,-1551037.8580599215,956714.5269635855,4903375.377401448,91672.3579802996,1016904.3334812162,703509.2370234735,2265301.9391899123,-1282495.9679899632,10366.069088861617,-944389.3046706825,3742475.084171213,1788166.808209335,-559117.4016934169,211584.47898144278,3464118.4728539344,-634586.391763255,2701056.994166461,-115790.75645278535,3822863.0370676313,-1446670.2010446324,7722728.602039149,-662009.2619322652,-600552.5649793845,227264.61594162096,-495371.81173268554,187461.49980326643
30,5.0,Inhale,0,-345197.84636314376,1270677.6839838533,-1267307.4239505709,798127.0302515085,4829188.413918093,215926.3100523563,1267488.4761533204,735049.5294134682,3358655.9727131356,-1569329.6066568273,36003.67001167237,-886074.5820020174,2683282.514742982,2934357.033187576,186045.04766326913,-70404.25563161857,3198896.662850472,-563469.7742565282,2904255.5933667426,-17060.984781979372,3427827.321533597,-1297178.473909727,7507650.88992512,-507364.34607057966,-884199.3165685969,334603.87951669877,-729340.6821040298,276001.3688637938
31,5.333333333333333,Inhale,0,619051.8647988162,1526286.7130901408,-165862.96301300396,923025.9191923704,5796777.710982846,298373.052888246,3065994.4096019045,733182.6385542802,3925090.8219389413,-589284.8074890748,2047184.5974850752,-411028.58219728834,873102.0073939523,4292838.325775989,161911.9058532954,-61271.65088602693,3925544.163161479,-427075.2146211352,4230544.653106079,146330.1144030169,5042542.047341483,-1908228.269406988,10118527.655267544,-855018.625327421,-1207606.9616275702,456989.69307064585,-996106.7245845294,376952.5357157381
32,5.666666666666667,Inhale,0,635940.4479129103,1191158.5451458723,-72702.35148107163,662331.8083449628,5485111.828395386,326098.57692350366,2819509.555508005,589743.9769139321,3713313.731746166,-1215099.3731445468,1307437.1089483006,-537687.2886132598,350101.2520614504,3287506.077680711,-852943.4356708527,322775.84616480285,2934370.622435151,-579993.3612038565,3150440.8209638274,-112431.62642150062,4531173.350052702,-1714713.1345613138,8971610.042194786,-611287.4235583603,-1225700.545426478,463836.7729315194,-1011031.3988093566,382600.41827182233
33,6.0,Inhale,0,-165440.5584654648,263346.4646591048,-776491.6633325259,-41662.62434898566,3200205.0087096333,322150.55955320614,-49088.30033004996,403856.5602850448,4031279.53734417,-3065336.9758370523,-1596147.4991854765,-1076274.1621281058,562092.7930526696,1610985.0491197663,-1290668.922100636,488422.4862132703,743730.9160814971,-760642.5487092779,751028.2369826569,-316191.964170367,1414294.8738244958,-535205.7422966154,3623148.175871673,179195.55274406506,-940141.7086111654,355773.92687607603,-775485.3257452345,293463.69493884913
34,6.333333333333333,Inhale,0,262608.056239247,220219.4659464667,-198422.64763437602,-108975.77087677021,2347673.811856726,337717.64898372145,-654511.0077459055,500314.370407277,4924418.670117703,-2440560.207384107,-625644.7862961104,-840396.36572536,207859.76591364562,2211797.6848025746,-387787.03712547256,146748.63983385888,968600.1803504194,-541501.0726071325,1547779.3665041453,93216.2166713304,1438317.973328731,-544296.7041889258,3252882.9316005814,44073.49909129043,-810617.2189989338,306758.51156806067,-668645.7502866494,253032.83759200823
35,6.666666666666667,Inhale,0,1211613.742611225,806160.2963041312,958142.0508682039,316889.27346044465,3313530.6502905814,308429.16695307766,1054355.0514113652,643075.0081960948,4759211.753502827,-644803.749183187,2157614.451461483,-314633.6835397291,633252.9372543872,2977970.236238579,717288.9628412258,-271440.6867363407,2201351.967116778,-313664.2903889817,3311641.820048651,399679.1768533716,3875258.444262229,-1466497.977641662,6693227.781783671,-652215.087099068,-770563.2193135287,291601.04261987406,-635606.8065732372,240530.04717531535
36,7.0,Inhale,0,690988.5177852957,271850.69756807014,667936.4144298927,-150562.8634413788,2311067.984025595,180635.12984688467,-163116.944154436,399469.46906991897,3843922.2033961453,-1748564.3408647657,247367.55384156495,-694614.3182217573,2085837.5183338316,1251685.8343274444,846582.1420354769,-320368.56820240535,540534.0007824586,-489655.15398627566,1413151.951688839,62670.86127251908,2167078.695205159,-820078.6011095932,3770948.2378261476,-262317.54770867765,-392178.4647143474,148410.46955971394,-323492.34341336606,122417.86560085388
37,7.333333333333333,Inhale,0,101333.61819742271,-662002.2738037679,226289.9790381847,-1054070.772173271,-51131.55511587886,100367.25465384455,-2971129.7988052745,179346.6713514902,3907137.7282886165,-3409210.12075053,-2453739.2393063377,-1133391.1075466622,1581501.9319730785,-57804.76506957033,55630.31182861122,-21051.948138587682,-1436900.710901261,-594887.3463849669,-577940.7992573773,-62585.05912053991,-1084360.0208353582,410349.8645219402,-1423401.777860112,403582.99369465717,34915.4415375903,-13212.905704173883,28800.352442947653,-10898.797904817182
38,7.666666666666667,Inhale,0,950218.9000072152,-161841.2170239354,1126069.0529368045,-858357.935933931,4253.774972276414,143169.68316204238,-2332110.7075378904,396783.7094562996,4216981.56308392,-1931948.6537797302,-155116.89566558352,-633319.8459710125,-690759.1872227237,1254705.985535126,-765757.0743116745,289782.2731037647,-238395.93594367092,-365130.3773065089,1143583.1502080534,369401.49480154493,554325.2586646654,-209771.00817393282,951440.9230500677,-200933.95847163786,58931.45132747657,-22301.184665294517,48610.19919735199,-18395.356036505105
39,8.0,Inhale,0,1137484.5235298749,583671.6124271883,1363000.515005976,-353476.6221064196,687451.8225096479,127706.01678535387,-1158217.9514115162,442166.2896775908,3488181.126059688,-762464.9213505586,1399782.4694635794,-379576.0016533942,-1227701.3583778287,2091367.0208393978,-1076710.4394263036,407455.0651614538,461934.31275884353,-331019.76178850536,1823348.9434367856,448435.30131692643,2482772.17826594,-939545.1763385957,3693106.906410923,-770654.8106487182,75527.97914476893,-28581.739841160525,62300.011767889795,-23575.93501923283
40,8.333333333333334,Inhale,0,-97100.17035690144,6338.577693997482,128961.71226288233,-905538.6659289231,-1130935.8068029894,-6403.5137766933485,-3491231.303370162,8917.416669739663,3129683.546935097,-2646564.241269104,-1758566.2979160298,-985834.1101136865,-724992.2665964996,1313854.3346399637,-1206837.1514748274,456698.3770078845,-1686165.8405881792,-542543.1647525181,-714719.0692628403,134451.7973904149,-395769.02090243076,149769.2288435564,-931649.1926084103,-129779.55668550667,433331.756948808,-163983.93922713338,357438.0496208636,-135263.79838673442
41,8.666666666666666,Inhale,0,-322067.95377606404,-301150.88443436555,-259858.01321843048,-1346054.3508608008,-2582565.77576811,-77613.04234366916,-5157422.872301041,-170697.80959751958,3796398.118360326,-3429966.2902084636,-2717887.098934136,-1089569.1445157554,-1392471.127052031,1399976.7358350873,-1320220.651832007,499605.6247084673,-2334379.738304354,-466206.05917438684,-1139639.3516232714,289378.20373438526,-1876853.1677885307,710249.758688348,-3321117.243639714,57467.22789313241,688731.6262417404,-260633.85230908188,568107.195580259,-214986.44939040634
42,9.0,Inhale,0,378589.68127346813,703763.6652976996,212652.61351201526,-621391.689293246,-1620842.9449096466,-48949.12590470235,-3718966.567671796,54603.549295882956,3582932.123475024,-1664733.2517298271,80055.1631850115,-562533.4935332071,-642074.9388778649,1516591.8828935367,-789870.0811083891,298907.2582398133,-650313.7246673271,-226368.6127482867,783946.3651728182,666183.1086740372,1058589.116570809,-400597.4881244614,962525.2514952983,-818480.8747811858,634716.9417139331,-240193.2993079614,523552.6408334525,-198125.85405962067
43,9.333333333333334,Inhale,0,-221319.93589610155,1158961.7588342044,-541144.6249924954,-129371.72914368511,-1756269.660048118,-33041.668968711856,-3998372.4826876284,4736.215017881129,2555954.5082591134,-1595192.5854585497,-373505.54938105,-725460.9357751175,2596650.1336808717,-391445.0785463928,242953.127295499,-91939.7441396701,-1045857.7948349004,-259312.96760428956,-41170.007400311515,576310.113140366,1515538.0063002447,-573518.7609407301,1319001.9022495204,-940169.5211746194,634841.9361467594,-240240.60043267114,523655.74374609644,-198164.87086715884
44,9.666666666666666,Inhale,0,-1110517.5015352091,542674.1230839916,-1556009.84423581,-572217.7716413878,-3794555.037586411,21072.573057593137,-6639906.511285836,-201011.85843366774,2797571.2776044947,-3300457.666689744,-3150281.195114764,-1216779.31979649,3423700.2154632867,-1590328.8934022808,299509.89435729646,-113342.28688901338,-2905055.2589005437,-310855.19704609644,-2069294.4722885026,488305.89128387603,-1292802.4413917223,489229.8650682904,-3113199.7031874517,-249583.44528776043,655199.1533288102,-247944.29768468085,540447.5986899766,-204519.34287728003
45,10.0,Inhale,0,-550843.6128299114,581471.4262863098,-1059368.7828918516,-684323.1048732041,-4249426.068969139,178195.67372430512,-6984898.356037873,7601.894073444581,3713839.8650760255,-3158700.012834321,-2268991.6681623757,-968827.680981611,606436.7045446768,-69186.1387264674,-1027749.2308221093,388926.87809118145,-2572554.8198281447,-115048.63641468965,-1317437.053500692,829490.5609016465,-1142971.9318155732,432530.12685914437,-2699344.105160196,-345186.98450297513,382434.59768162103,-144723.13837821194,315455.01687984465,-119376.33346136134
46,10.333333333333334,Inhale,0,-151793.70784602474,1192615.4968135704,-535451.6667521294,-317163.8420533087,-3485026.1015295065,316722.84711514733,-5949111.579468616,254274.58344464793,3699776.1332846913,-2322920.8233158933,-564639.0496708888,-721183.5066157227,-402470.81277219474,876256.027685694,-2000337.7722507608,756979.5253138139,-1866832.2595044153,8466.230359850502,-633854.408485423,1014004.1353761564,556904.4556297192,-210747.0429823428,43628.80213362619,-737305.5123358945,-18179.954098026752,6879.764614886819,-14995.917633062294,5674.842903531152
47,10.666666666666666,Inhale,0,-920766.2302811593,983336.7868829485,-1114660.1564068978,-533743.11892024,-4337958.211410324,388459.83460425225,-7203626.700521564,67977.58660998176,3879617.0608884026,-3364579.465083568,-2086858.019133535,-1166437.9448547564,1927302.8580503566,-243291.1697230573,-1409637.467041231,533443.2591675678,-3262129.437798215,-15949.796432598196,-2450072.405053045,866341.3000883668,-893132.6054890878,337984.4669856433,-2262709.925205909,-237195.37754584008,-333183.1794961615,126085.12849995602,-274829.49019048107,104002.58391988637
48,11.0,Inhale,0,-1107872.8192214165,464457.431145215,-1178228.4581346249,-1076464.1285074262,-5718886.859435079,503607.72308353696,-8849187.656117024,-116231.03739572027,5073328.265527439,-4391857.602534136,-3078973.158126224,-1413858.5108445624,2971816.8705544267,-489282.54263476667,-592706.8147416918,224295.58122506115,-4421678.447589706,147340.03871618485,-3493204.985635369,948536.1643205989,-2712497.1523233983,1026479.0453216706,-5168463.10510926,319369.3988143214,-692398.8728964536,262021.63324808382,-571132.1607962172,216131.17442886255
49,11.333333333333334,Inhale,0,-450114.90166515356,574451.8743560698,-309699.45942572586,-1174415.1797210737,-5904732.086517089,649671.0541889403,-8638967.183180274,-31423.630817372537,5683879.380274223,-3906728.597462465,-1666106.672098684,-1171389.690683943,1201620.4526516213,651614.4183140933,-1151491.6134372056,435754.1946337164,-4146013.580388997,445195.9062712728,-2865002.487674521,1258696.4071697353,-2090026.5408718553,790920.0739744467,-4306924.534646212,183707.65439038418,-1044220.331132426,395159.9682558837,-861335.6223013251,325951.6665387433
50,11.666666666666666,Inhale,0,-428612.5933394276,664539.5241754887,36838.069962665584,-1227725.81408614,-6277761.166375823,715039.3369995563,-8741831.794231243,-90854.07488541653,5398532.072509818,-3776062.6813478027,-1496642.8550475184,-1244450.412932129,-37017.307874140926,760850.4074645077,-2207496.001139929,835373.554534652,-4540115.5497013545,575041.1043307256,-3384896.0832114746,1392118.809660497,-2032771.8755802135,769253.4284930192,-4406739.373385236,177075.9314521253,-1188896.2601775667,449909.0799370058,-980673.0146704003,371112.0208953411
51,12.0,Inhale,0,-785905.1567706557,318548.7418261497,-104254.38238240492,-1608864.9552411775,-7428005.019560526,723364.0266013328,-9997090.808020283,-369873.63150152564,5688848.126255082,-4468089.322339463,-2720638.2578775673,-1581197.458761558,461942.36230042216,-15093.602871821377,-2291258.31448388,867071.3793089876,-5654947.395757446,623075.2950721921,-4733164.852877369,1463941.1355268524,-3489884.10459331,1320662.3648978898,-6856661.675213136,564002.7970285121,-1274890.4709618096,482451.5124012738,-1051606.202668983,397954.97298325086
52,-5.0,Exhale,1,-603175.6005620989,-289227.9271997429,307158.6421226198,-57550.324524863085,-608119.5253194785,131520.09424351619,930982.9931136547,-177353.40876503903,135016.44763758502,-55371.44310142483,-672775.2035535289,362898.93216319045,-2573820.9077609065,-457503.63533552864,-458612.567528351,173550.85150441306,-2020898.6456500683,-33255.98895086124,-2266461.4828388058,36670.82709976843,-1515595.7420520044,573540.6096417723,-2006658.0897061862,527888.6355152274,-407477.58360885736,154200.0516588684,-336111.9752102062,127193.46051273539
53,-4.666666666666667,Exhale,1,-407793.61380413827,-462289.24011128105,391450.30339808983,-252308.50894176672,-1208171.597608788,61822.76771619,180515.82944240075,-241682.4321716091,205461.65549932604,-107845.40661782848,-814668.016813432,273162.0335766257,815626.202705257,-1279221.6194438948,1569758.8180381441,-594037.3178069078,-1887312.4869915107,15309.547654050015,-2278262.6890846966,68789.28426940489,-1797538.668828282,680235.1018607271,-2772673.4710865193,490169.154835977,-123070.32098995574,46572.99104959112,-101515.78968180664,38416.19917956396
54,-4.333333333333333,Exhale,1,-48987.19325653822,-595352.4301245885,668760.2610354156,-475588.6710323819,-1559405.3345851272,-13040.420696058152,-363305.2813204309,-299843.0814682398,178977.72386450318,-10020.59158377755,-721086.2034780266,252991.07496337802,1013551.511530113,-1117438.0847225056,1435191.1119641913,-543113.4190136493,-1446097.414397694,101515.29400897663,-2025172.2208335688,111873.60998978835,-1792168.531681334,678202.903136713,-3033862.36603973,383519.86811862135,134999.5442861731,-51087.31753655071,111355.72926647353,-42139.88669836599
55,-4.0,Exhale,1,330752.17053577123,-761142.6749779761,859420.6746946272,-653259.8472792548,-1793358.8316274146,-128800.2350912274,-874293.8310019044,-408001.3381962768,11402.143179483293,-41303.574725002014,-738041.558512282,253217.4228780939,-837395.8444718781,-344382.1872886579,-234191.15255683032,88623.98638590497,-1079805.5819327254,150441.64868004495,-1812558.975967535,132388.71214162317,-1787072.322540524,676274.365851751,-3309686.098687119,289831.05799070373,402413.843633771,-152283.80154559852,331935.09846056026,-125612.82237096649
56,-3.6666666666666665,Exhale,1,557424.2240281597,-855986.848730429,818123.5548308463,-711565.3249694797,-1986391.490813756,-245188.0823582937,-1423504.4470624572,-466933.6254618877,-264355.64260896115,-75301.12513486587,-769029.3792587577,194754.15486958693,-801136.1497467329,-573925.0184125317,-585681.3799457852,221636.97507828777,-897414.630910415,169855.35899754768,-1584994.5344683414,128344.22551570412,-1799645.405476535,681032.345471324,-3539592.065182968,197237.3526245572,653991.5394406357,-247487.3053704274,539451.4862519592,-204142.38817945396
57,-3.3333333333333335,Exhale,1,696881.9695047888,-777174.5944127813,733307.0232886747,-672620.6657265576,-1920888.0450612006,-310847.4745760827,-1736968.0814880284,-417208.48473609705,-339843.6516002482,35284.90922168959,-468256.4458489482,110258.34238250654,428863.6693127699,-1294356.6612132846,512751.09463704994,-194038.26973969408,-563143.2480376137,225548.73557338916,-1136494.6673881689,138181.56040743124,-1460624.143437092,552737.9356121547,-3137110.215355194,42722.275519279094,815435.7392388824,-308581.96419418935,672620.3550761855,-254536.9307949812
58,-3.0,Exhale,1,785641.5738519975,-633450.6422928268,642520.2538601867,-599192.7739622049,-1625922.0741488577,-343848.61586710927,-1811058.293045696,-366503.77727990225,-105412.11165509679,11167.15683565217,-135014.88559708142,40612.94777499269,116419.8240355474,-926486.997043112,771694.7044907672,-292029.22586184833,-124976.32104135193,264101.88511211186,-698359.3470927418,139174.23536431993,-926101.3142129037,350460.6786665703,-2409593.692700748,-106492.71571137286,883395.0567264371,-334299.52680087637,728677.2802998476,-275750.3204709719
59,-2.6666666666666665,Exhale,1,725596.3844447036,-461760.8814197798,417862.3220946653,-448425.9306876954,-1251824.0437561458,-368934.2387130279,-1722646.7663388227,-371410.39262991084,124645.29094526578,-132781.12893709648,-46884.52823059874,19877.421684288078,-951512.1103589106,2327.6016628593356,-167816.4279643326,63506.07469525682,218382.2886547242,252663.4269849266,-346446.0048834306,115719.4949303475,-504582.22573013644,190946.95856550915,-1734500.0828990997,-199074.41793615787,860494.4048989989,-325633.32812673494,709787.447757031,-268601.91950095526
60,-2.3333333333333335,Exhale,1,545686.380459125,-125046.46134206942,130791.06232301863,-160559.77625853353,-631270.8691508031,-330787.7486968032,-1218467.9161971172,-292264.02160286845,108392.85558438406,65299.42314501746,241280.62930778958,83059.18601813256,-638718.4111369968,27730.31464429289,-628746.9935155512,237934.1165759002,693400.6588572271,267419.8873610072,298715.2731467968,120362.47914125875,125529.06487811955,-47503.44329978007,-511033.7965903418,-312062.7236817035,669660.4540553191,-253416.827729972,552376.1477606905,-209033.41421987777
61,-2.0,Exhale,1,316523.5477419275,299965.5381361791,-136084.64527476262,158312.03685084006,192517.93137910057,-188884.00728206235,-435271.6428460903,-55677.91004317324,-26693.926700705804,396591.5430788363,752330.7333857301,122891.81439621744,255614.7749929174,-428355.07767443964,-233069.21454099205,88199.4160366163,1295012.9463985567,263160.52050416963,1028896.2688727295,123566.5013608176,974709.655920623,-368855.3317809848,1169991.2195966218,-418007.9786807505,329744.97406634386,-124784.02268157818,271993.4519280565,-102929.35372474465
62,-1.6666666666666667,Exhale,1,13252.815662974093,520869.40702066565,-462867.33395402523,355767.5927418881,711447.6375934435,-26150.187325434614,-16688.332926752202,163163.4878595295,-134539.25921476385,244798.51767104233,796887.0157215769,6014.985118605209,72072.33147609404,-37245.60394599901,69967.50278120767,-26477.511836972222,1493021.262019079,101178.21827989293,1218115.483280161,43166.378954806016,1283084.1678299608,-485552.21911784605,2006957.0117481006,-373135.15502580995,22852.34907243883,-8647.919662934544,18849.989530474788,-7133.323344134413
63,-1.3333333333333333,Exhale,1,-150584.21783311493,612314.5245675052,-651143.4310406765,512141.62535759236,1098832.4554951,77694.64367452273,372052.98356017645,261278.3244394763,-245415.81383382695,115876.2762930392,780381.7004803771,-104178.22946722305,-557587.1642267072,1151067.9152209167,-42211.17986955081,15973.801696817723,1410388.5100078352,-133085.1710561709,1434062.9448933466,-37841.26292213741,1367127.1895247328,-517356.27118893765,2489514.5762251965,-308663.11889528175,-210802.7383508837,79773.2058182139,-173882.75482375894,65801.72960421749
64,-1.0,Exhale,1,-77983.87020208874,883005.8791813632,-560619.5261698841,780794.5782103278,2081314.4042428213,181640.3238597466,1540204.5561527205,405234.43796003656,-414583.2826444169,610978.9888139386,1411261.327349636,-80481.97240468585,-183262.0892074499,1788487.8633742132,-440986.5552363939,166880.71278932548,1572190.223130419,-272901.5683410907,2323906.1741024777,-72615.0615745389,2270467.3881622776,-859203.5553064148,4208551.481707163,-406834.07651797944,-528101.1685087917,199847.13451951076,-435609.55006715975,164845.91502812807
65,-0.6666666666666666,Exhale,1,-397050.26230472117,1073525.9895349834,-768154.3515546974,932188.0773741931,2992905.5803405894,346569.34853352926,2417521.43481193,646984.1190843639,-473168.1273191427,546049.7395453498,1213020.435300426,-259468.23897955145,1140132.4518266423,1156338.681060731,-888900.610094683,336382.9705237806,1282799.5225229706,-396221.60398171615,2535753.727270138,-240080.68360259684,2785443.636593544,-1054083.8807660316,5275665.5902714925,-311390.9979625966,-894780.254375811,338607.97991903534,-738068.474868629,279304.1912749059
66,-0.3333333333333333,Exhale,1,-1175012.8756057632,841906.9183970894,-1337127.621881725,725227.7047799862,2791260.3832519343,516489.9402532668,1955171.3262371582,794338.905310801,73380.83267169693,-658294.8229188538,-427521.6105878463,-666962.2988214113,1880172.2402292355,593386.1420693495,-712154.8000077888,269497.7867929152,159837.36368701517,-523423.4041665027,1553050.7258956777,-453215.0363734004,1586001.4832917936,-600183.9622407153,3759553.8554066815,174823.96197280113,-1162554.5439977425,439940.6935542818,-958944.7856541864,362889.49732218724
67,0.0,Exhale,1,-1111171.4326609892,729843.44377369,-1053397.1877723744,566640.2080679091,2717073.41976858,640743.8923253234,2205755.468909262,825879.1977007957,1166734.8661949201,-945128.4615857177,-401884.0096650356,-608647.5761527462,820979.6708010044,1739576.3670475907,33007.6493488971,-12490.947820146148,-105384.44631644683,-452306.7866597759,1756249.3250959595,-354485.26470259443,1190965.76775776,-450692.2351058098,3544476.1432926515,329468.8778344868,-1446201.2955869548,547279.9571293596,-1192913.6560255308,451429.3663827146
68,0.3333333333333333,Exhale,1,-146921.72149902926,985452.4728799773,48047.27316519264,691539.0970087711,3684662.7168333335,723190.6351612132,4004261.402357846,824012.3068416077,1733169.715420726,34916.337582034605,1609296.9178083676,-133601.57634801717,-989200.8365480254,3098057.6596360034,8874.507538923383,-3358.343074554515,621263.0539945598,-315912.2270243828,3082538.3848352963,-191094.16551759816,2805680.493565646,-1061742.030603071,6155352.908635075,-18185.401422354586,-1769608.940645928,669665.7706833067,-1459679.6985060303,552380.5332346589
69,0.6666666666666666,Exhale,1,-130033.13838493513,650324.304935709,141207.88469712497,430844.9861613636,3372996.834245873,750916.1591964709,3757776.548263947,680573.6452012596,1521392.6252279507,-590898.2280734373,869549.4292715926,-260260.2827639886,-1512201.5918805273,2092725.4115407257,-1005980.8339852245,380689.1539762753,-369910.4867317677,-468830.37360710424,2002434.5526930438,-449855.9063421157,2294311.7962768655,-868226.8957573966,5008435.295562317,225545.80034670612,-1787702.524444836,676512.8505441803,-1474604.3727308575,558028.4157907432
70,1.0,Exhale,1,-931414.1447633102,-277487.7755510585,-562581.4271543293,-273149.4465325849,1088090.0145601204,746968.1418261733,889178.692425892,494686.22857237235,1839358.4308259538,-2441135.830765943,-2034035.1788621845,-798847.1562788346,-1300210.050889308,416204.38297978113,-1443706.320415008,546335.7940247427,-2560550.193085422,-649479.5611125255,-396978.03128812637,-653616.244090982,-822566.6799513414,311280.4965073017,-340026.57076079503,1016028.7766491316,-1502143.6876295232,568450.0044887369,-1239058.2996667353,468891.69245776994
71,1.3333333333333333,Exhale,1,-503365.53005859844,-320614.7742636967,15487.588543820597,-340462.5930603694,235558.8177072132,762535.2312566886,283755.9850100364,591144.0386946045,2732497.563599487,-1816359.0623129976,-1063532.4659728184,-562969.3598760889,-1654443.0780283322,1017017.0186625889,-540824.4354398446,204661.9476453313,-2335680.9288164997,-430338.0850103802,399773.098233362,-244208.0632492847,-798543.5804471064,302189.5346149912,-710291.8150318873,880906.7229963569,-1372619.1980172917,519434.5891807215,-1132218.7242081503,428460.83511092904
72,1.6666666666666667,Exhale,1,445640.1563133796,265326.05609396775,1172052.2870464006,85402.45127684543,1201415.6561410686,733246.7492260449,1992622.044167307,733904.6764834223,2567290.6469846116,-20602.604112077704,1719726.7717847752,-37206.67769045793,-1229049.9066875905,1783189.5700985934,564251.5645268537,-213527.37892486827,-1102929.1420501415,-202501.30279222934,2163635.551777868,62254.89693275654,1638396.8904863915,-620011.7388377446,2730053.035151202,184618.13680599848,-1332565.1983318867,504277.1202325349,-1099179.7804947381,415958.04469423613
73,2.0,Exhale,1,-74985.06851254971,-268983.5426420932,881846.6506080893,-382049.68562497804,198952.9898760818,605452.7121198518,775150.0486015059,490299.1373572465,1652001.09687793,-1124363.1957936564,-190520.125835143,-417187.31237248617,223534.67439185383,56905.16818745915,693544.7437211048,-262455.2603909329,-2763747.1083844607,-378492.1663895233,265145.68341805565,-274753.418648096,-69782.85857067857,26407.63769432386,-192226.50880632087,574515.6761963888,-954180.4437327053,361086.54717237473,-787065.317334867,297845.8631197747
74,2.3333333333333335,Exhale,1,-664639.9681004226,-1202836.5140139312,440200.2152163813,-1285557.5943568703,-2163246.549265392,525184.8369268117,-2032862.8060493327,270176.3396388177,1715216.6217704013,-2785008.9756794213,-2891626.9189830455,-855964.1016973912,-280800.91196889925,-1252585.4312095556,-97407.0864857608,36861.35967288473,-4741181.820068181,-483724.3587882145,-1725947.0675281605,-400009.339041155,-3321221.5746111954,1256836.1033258573,-5386576.52449258,1240416.2175997235,-527086.5374807676,199463.17190848695,-434772.6214785532,164529.19961410362
75,2.6666666666666665,Exhale,1,184245.3137093698,-702675.4572340987,1339979.289115001,-1089844.7581175303,-2107861.219177237,567987.2654350095,-1393843.7147819481,487613.3777436271,2025060.4565657037,-1307747.5087086204,-593004.5753422915,-355892.84012174146,-2553062.0311647016,59925.319395140716,-918794.4726260465,347695.58091523714,-3542677.0451105903,-253967.3897097565,-4423.118062729881,31977.21488092986,-1682536.2951111717,636715.2306299843,-3011733.8235824006,635899.2654334286,-503070.52769088134,190374.89294736632,-414962.7747241489,157032.6414824157
76,3.0,Exhale,1,371510.93723202957,42837.372217025,1576910.7511841727,-584963.4442900189,-1424663.1716398653,552523.5990583211,-219950.95865557436,532995.9579649182,1296260.0195414727,-138263.7762794493,961894.7897868715,-102148.99580412301,-3090004.2023198064,896586.3546994121,-1229747.8377406755,465368.37297292624,-2842346.7964080754,-219856.77419175298,675342.6751660024,111011.02139631136,245910.62449010258,-93058.93753467864,-270067.84022154484,66178.41325634833,-486473.99987358897,184094.33777150032,-401272.96215361106,151852.06249968798
77,3.3333333333333335,Exhale,1,-863073.7566547468,-534495.6625161659,342871.94844107894,-1137025.4881125223,-3243050.8009525025,418414.06849627383,-2552964.31061422,99747.08495706719,937762.4404168813,-2022363.096197995,-2196453.977592738,-708407.1042644153,-2587295.110538477,119073.66849997832,-1359874.5497891996,514611.68481935695,-4990446.949755098,-431380.1771557657,-1862725.3375336234,-202972.48253020018,-2632630.574678268,996255.4676474736,-4894823.939240878,707053.6672195598,-128670.22206954993,48692.13838552744,-106134.92430063731,40164.19913218638
78,3.6666666666666665,Exhale,1,-1088041.5400739093,-841985.124644529,-45947.777040233894,-1577541.1730444003,-4694680.769917623,347204.539929298,-4219155.8795451,-79868.14131019205,1604477.011842111,-2805765.1451373547,-3155774.7786108432,-812142.1386664843,-3254773.9709940082,205196.0696951018,-1473258.0501463793,557518.9325199396,-5638660.8474712735,-355043.0715776345,-2287645.6198940547,-48046.0761862298,-4113714.7215643683,1556735.997492265,-7284291.990272182,894300.4517981989,126729.64722338253,-47957.77469642104,104534.22165875814,-39558.451871485544
79,4.0,Exhale,1,-387383.9050243773,162929.42508753628,426562.8496902119,-852878.5114768454,-3732957.9390591597,375868.4563682648,-2780699.574915854,145433.21758321047,1391011.0169568085,-1040532.1066587179,-357832.5164916965,-285106.4876839359,-2504377.7828198425,321811.2167535515,-942907.4794227611,356820.5660512858,-3954594.8338342463,-115205.62515153432,-364059.903097965,328758.82875342213,-1178272.4372050285,445888.75067945564,-3000649.49513717,18352.349123880616,72714.9626955752,-27517.221695300577,59979.66691195167,-22697.85654069989
80,4.333333333333333,Exhale,1,-987293.522193947,618127.5186240412,-327234.3888142988,-360858.5513272843,-3868384.6541976314,391775.91330425534,-3060105.4899316863,95565.88330520866,364033.40174089774,-970991.4403874401,-811393.2290577579,-448033.92992584634,734347.2897388939,-1586225.7446863782,89915.72898112699,-34026.436328197684,-4350138.90400182,-148149.9800075372,-1189176.2756710947,238885.833219751,-721323.5474755928,272967.47786318697,-2644172.844382948,-103336.29726955306,72839.95712840153,-27564.52282001032,60082.76982459559,-22736.87334823804
81,4.666666666666667,Exhale,1,-1876491.0878330548,1839.8828738281914,-1342099.6080576133,-803704.5938249872,-5906670.031735924,445890.1553305603,-5701639.518529894,-110182.19014634023,605650.1710862792,-2676256.5216186345,-3588168.8747914718,-939352.3139472188,1561397.3715213093,-2785109.559542266,146472.49604292444,-55428.979077540964,-6209336.368067463,-199692.20944934408,-3217300.7405592855,150881.61136326095,-3529663.995167559,1335716.1038722075,-7076374.44981992,587249.778617306,93197.17431045228,-35268.22007202002,76874.62476847573,-29091.345358359224
82,5.0,Exhale,1,-1316817.1991277568,40637.18607614653,-845458.546713655,-915809.9270568033,-6361541.063118652,603013.2559972723,-6046631.363281932,98431.5623607721,1521918.7585578102,-2534498.8677632115,-2706879.3478390835,-691400.6751323398,-1255866.139397301,-1263966.8048664527,-1180786.6291364813,446840.18590265384,-5876835.9289950635,-3885.6488179372927,-2465443.321771475,492066.2809810314,-3379833.4855914107,1279016.3656630616,-6662518.851792663,491646.2394020913,-179567.3813367369,67952.93923444889,-148117.9570416562,56051.66405755946
83,5.333333333333333,Exhale,1,-917767.2941438701,651781.2566034071,-321541.4305739328,-548650.6642369078,-5597141.09567902,741540.4293881145,-5010844.586712674,345104.25173197547,1507855.0267664758,-1698719.6782447838,-1002526.7293475968,-443756.50076645147,-2264773.6567141726,-318524.6384542913,-2153375.1705651325,814892.8331252864,-5171113.368671334,119629.21795660286,-1781860.6767562062,676579.8554555414,-1679957.098146118,635739.1958215743,-3919545.944498842,99527.71156917195,-580181.9331163847,219555.84222754766,-478568.8915545632,181102.84042245196
84,5.666666666666667,Exhale,1,-1686739.8165790045,442502.54667278513,-900749.9202287012,-765229.9411038392,-6450073.205559838,813277.4168772195,-6265359.707765622,158807.2548973093,1687695.9543701871,-2740378.320012459,-2524745.6988102426,-889010.9390054853,65000.014108378855,-1438071.8358630426,-1562674.8653556032,591356.5669790403,-6566410.546965134,95213.19116415417,-3598078.6733238283,528917.0201677518,-3129994.1592649254,1184470.7057895605,-6225884.671838378,599637.8463592264,-895185.1585145195,338761.20611261687,-738402.4641119819,279430.5814388072
85,6.0,Exhale,1,-1873846.405519262,-76376.80906494836,-964318.2219564284,-1307950.9506910257,-7831001.853584592,928425.3053565042,-7910920.663361083,-25401.369108392748,2881407.159009224,-3767656.457463026,-3516860.8378029317,-1136431.5049952914,1109514.026612449,-1684063.208774752,-745744.2130560639,282208.8890365336,-7725959.556756624,258503.0263129372,-4641211.253906152,611111.8843999839,-4949358.706099236,1872965.2841255877,-9131637.85174173,1156202.6227193878,-1254400.8519148116,474697.71086074464,-1034705.1347177181,391559.1719477833
86,6.333333333333333,Exhale,1,-1216088.487962999,33617.634145906464,-95789.22324752925,-1405902.0019046732,-8016847.080666601,1074488.6364619075,-7700700.190424331,59406.03746995499,3491958.2737560077,-3282527.4523913553,-2103994.351775392,-893962.6848346718,-660682.3912903565,-543166.2478258921,-1304529.0117515775,493667.5024451889,-7450294.689555916,556358.8938680252,-4013008.755945304,921272.1272491203,-4326888.0946476925,1637406.3127783637,-8270099.28127868,1020540.8782954506,-1606222.310150784,607836.0458685446,-1324908.596222826,501379.6640576641
87,6.666666666666667,Exhale,1,-1194586.179637273,123705.28396532543,250748.3061408622,-1459212.6362697391,-8389876.160525337,1139856.9192725234,-7803564.801475301,-24.406598088999587,3206610.9659916027,-3151861.5362766935,-1934530.5347242262,-967023.407082858,-1899320.1518161187,-433930.2586754775,-2360533.3994543008,893286.8623461244,-7844396.658868275,686204.091927478,-4532902.351482257,1054694.5297398819,-4269633.429356051,1615739.6672969363,-8369914.120017704,1013909.1553571917,-1750898.2391959247,662585.1575496666,-1444245.9885919013,546540.0184142619
88,7.0,Exhale,1,-1551878.7430685011,-222285.49838401368,109655.85379579169,-1840351.777424777,-9540120.013710039,1148181.6088743,-9058823.81526434,-279043.9632141981,3496927.019736867,-3843888.1772683533,-3158525.937554275,-1303770.4529122869,-1400360.4816415557,-1209874.2690118067,-2444295.7127982522,924984.6871204601,-8959228.504924364,734238.2826689444,-5881171.121148152,1126516.8556062372,-5726745.658369147,2167148.6037018066,-10819836.421845604,1400836.0209335787,-1836892.4499801674,695127.5900139346,-1515179.1765904839,573382.9705021717
89,7.333333333333333,Exhale,1,-1379584.281878857,-380613.7759928987,406970.98351101,-2126651.524759539,-10218140.776970042,1173018.5717137035,-9682109.87766042,-428638.6828092559,4285558.056109361,-4029044.2345011444,-3155552.4666403043,-1306358.6187360773,-1644753.4294161845,-1067139.2779106395,-2447964.6602714397,926373.1116931405,-9301652.322267417,911185.883598534,-6161019.655841629,1346190.3530737648,-6278424.594953183,2375918.1751882844,-11750903.367908262,1526382.2825978363,-2005741.2377062028,759024.3363313591,-1654455.7940962065,626088.8431149591
90,7.666666666666667,Exhale,1,-1178006.9238285362,-286841.51581948926,793553.6339079003,-2212499.758001698,-10553464.841742883,1189780.9757688204,-9851385.871529533,-454646.3501778109,4583362.676702165,-3960317.6542598265,-2800349.5123697924,-1171876.3523467558,-3453524.440384181,-157031.72343749594,-3453358.63358651,1306840.1824204368,-9383749.197112763,1121491.4002043619,-6183135.3171724565,1545845.7822856393,-6186512.688187526,2341136.3335816693,-11598962.674857326,1419763.621843731,-2053389.6822629578,777055.7395487907,-1693759.0918968478,640962.2270629704
91,8.0,Exhale,1,-1265095.9123896412,-359732.8508083315,802105.5902692,-2339548.632365257,-11232131.577539327,1184644.9646099382,-10599506.766383331,-541631.6593440605,4542516.1503772605,-4182537.095346299,-3366878.351605902,-1188181.201910726,-4238146.934968446,389876.4646972826,-3904613.1158440434,1477606.5442387632,-9846784.028579062,1192023.091507628,-6695282.879276143,1620529.9669828948,-6743574.475722977,2551942.915024453,-12458738.584107298,1451099.999207875,-1932818.9716784193,731428.6656959881,-1594305.1309497124,603326.2771785514
92,8.333333333333334,Exhale,1,-1239322.297177746,-512486.3173895047,704342.9528372183,-2416755.077664761,-11817231.155997202,1209719.6003863034,-11361225.184029594,-602278.5818373513,4279069.341620565,-4033472.2415228426,-3789332.025167648,-1163813.0155368266,-3162595.044925628,164306.94835930315,-2885231.117804776,1091846.0433404793,-10120082.342262907,1150862.1826964153,-6936309.543556135,1656078.984018378,-7250120.23262556,2743632.924546395,-13311980.294951767,1532876.0395382408,-1884089.24879466,712988.0788066469,-1554109.9298668767,588115.373971269
93,8.666666666666666,Exhale,1,-1127434.425969921,-568196.2326334014,575214.581021924,-2358035.2766718585,-12094381.717553595,1262683.2996913984,-11753262.815685095,-541617.3049256587,3604799.7173947976,-3481952.3633746086,-3683917.9642494232,-1087781.4499864816,-3183858.0999557558,-500970.6391069274,-2385049.280211014,902564.3054036457,-10055963.177708223,1153438.1275040398,-6797940.311032308,1699090.6008556578,-7284418.912273648,2756612.4316071854,-13549558.515006678,1559311.7008839124,-1925367.7624592346,728608.9355004202,-1588158.9262280108,601000.3944215217
94,9.0,Exhale,1,-908300.8601454748,-539388.4368402311,406673.3311823618,-2242710.6675528768,-12005506.132740373,1258576.6187801722,-11784626.502754029,-465690.3501254319,3088951.3627680014,-3091894.3837583023,-3314431.6891251015,-1068039.2665240222,-4936811.570062116,-819367.2416974924,-2980659.0983059774,1127958.4581453914,-9582898.598789975,1249302.1281740982,-6333451.180035676,1769379.2993816296,-6892643.847458363,2608354.6189978807,-13130154.606491469,1454400.4522444934,-1861489.8469445151,704435.8809117643,-1535468.5863918634,581061.0076883938
95,9.333333333333334,Exhale,1,-605499.276913288,-371120.81256989326,262810.50039046747,-2043174.8785754666,-11216032.866255214,1152202.473525232,-11166778.580858544,-494878.51052898966,2908873.976056733,-2865912.959179676,-2774245.622411748,-1020668.2211733507,-4886900.826728821,-651700.6936571434,-2718278.385636406,1028666.813462489,-8743067.487099456,1276112.7025671299,-5649054.938157211,1797728.7131540135,-6022414.20539105,2279037.225453437,-11653787.535926702,1172325.9588203044,-1679540.8078571917,635581.6608143987,-1385386.09504691,524265.91306375613
96,9.666666666666666,Exhale,1,-932144.5791805647,-136893.95069996003,-110216.85315257312,-1839882.5869659586,-10451162.840405012,1046917.512544597,-10630568.202175977,-598457.4797893132,2489933.9259810164,-2818220.7604030077,-3009572.1567963213,-980760.78826085,-3231220.505984207,-507873.0745745703,-2193744.597418964,830169.6678683601,-8566910.487133719,1182469.8370109715,-5729980.505373715,1716069.8553906165,-5822616.902398437,2203428.7608849034,-10741982.956032282,1053158.1570657063,-1583188.4312583257,599119.4306288443,-1305908.86999806,494189.67647745105
97,10.0,Exhale,1,-1627475.2066527938,152840.66296246156,-481319.93974882725,-1706197.9381194937,-10195965.036243511,1112874.0745379992,-10553431.075717526,-553423.380078673,2115533.43660189,-2668313.9887146847,-3460571.861246465,-949918.9928233953,-4479028.645388848,202077.9206821477,-3469263.6254608748,1312859.0425180637,-8729951.932262186,1236064.0087393923,-5988365.56830596,1736844.2021183937,-6154812.252849121,2329140.069336909,-10467551.615571909,1116342.5489523613,-1785129.1078587738,675539.0031806123,-1472481.664227193,557225.128017162
98,10.333333333333334,Exhale,1,-1456307.4181470159,636761.6626169656,-307191.90060060873,-1443410.341984054,-9254727.420171186,1339989.782966946,-9604500.010889476,-235195.9612357828,2041918.5993359599,-1853109.175116036,-2238491.711231108,-807420.1162794315,-7515986.705979653,1722595.5653272518,-4703564.668303354,1779950.4660099738,-7543079.605950379,1475457.0419129336,-4797886.031385792,1926841.9941392825,-4872361.656585,1843827.6100785332,-7986740.934225016,889731.4143379868,-2241899.10197346,848392.5772714895,-1849252.9790537104,699805.1337570547
99,10.666666666666666,Exhale,1,-1020849.1926589838,867986.2460078151,-261968.23673295588,-1203289.4804085954,-7817919.71655198,1526000.938890022,-8201290.654686787,76805.40500639532,1437753.828863799,-1315171.635014248,-1133871.4383377177,-822630.0144203758,-6759764.101576272,1982140.648991001,-3493501.8220482524,1322031.4027072785,-6182808.8501728205,1489711.3247147528,-3781724.3483433137,1878488.8425035845,-3256822.586286335,1232465.8613151864,-5461560.597289376,739429.6697585664,-2617147.50925874,990396.2754279061,-2158780.394648207,816938.3096529898
100,11.0,Exhale,1,-1538360.8451630643,398245.9325215324,-938444.3356668252,-1431306.3336382976,-7614969.162403199,1600558.548398838,-8289267.793254427,155764.67242925364,543299.8416037802,-2042099.6222953347,-2555355.1425951137,-1177608.4565190081,-3693415.434790688,455179.062911768,-2304707.222956292,872160.7939531861,-6680308.559511888,1232497.7006530648,-4726099.268094731,1560263.0099461572,-4238155.829713811,1603827.7298402966,-7066339.246463397,1288342.9505621335,-2793632.502426466,1057182.759293976,-2304355.8128668047,872027.8112907462
101,11.333333333333334,Exhale,1,-1845304.5454661553,-5739.951459608817,-1142628.7078364245,-1816156.5907167722,-7716928.978751822,1704754.9749159382,-8597696.78681834,260970.64334684482,462874.3400057005,-2463487.809628617,-3542001.5236104275,-1328532.7738454675,-3886275.777214594,38938.47928995495,-3361333.8713666457,1272015.633392436,-7019492.400999483,1180310.5758775743,-4996611.505583319,1524491.657763828,-5389587.003921375,2039559.052707055,-8507987.05337725,1749101.903537765,-3055750.4007557165,1156374.9482362836,-2520566.3925142013,953847.4840578885
102,11.666666666666666,Exhale,1,-1005651.626985892,248998.59282298887,-362298.82077371055,-1839250.0946034496,-6394447.773974335,1874148.722779465,-7193681.023615165,539681.6989592569,431461.82156068046,-1568938.3138088568,-1996711.0094323978,-1073949.121272661,-5459114.9416705305,1213485.2692159298,-3894843.4378680047,1473909.445529054,-5469916.254950517,1362037.6927153573,-3255492.3599242233,1760208.4340764356,-3936850.6282614265,1489806.0523346146,-5524973.504921519,1442452.4286262642,-3438252.8737268634,1301123.7723787497,-2836077.3970079618,1073245.0046797357
103,12.0,Exhale,1,-480820.80033712415,323821.6004484934,39009.36772550656,-1878945.0920713856,-5194940.099762007,2002800.012513135,-5990750.461739401,728170.4998574858,-507176.2297875061,-1104821.8997865457,-1339531.3293038956,-996742.666730516,-3635119.002827305,1019519.2450215353,-2009674.9991165462,760512.9733437704,-4542037.6249419525,1347592.7412604208,-2539384.261662475,1752434.4679251162,-2962932.0513372263,1121250.0852966802,-3464917.8804652225,1298179.558676794,-3659078.0730865956,1384689.7365411774,-3018227.279403049,1142175.2290769152
104,-5.0,Inhale,2,408505.24532070366,1031066.4338470983,-135721.69929439572,1250583.4655472164,5517070.233419541,142458.6258474241,5336508.494994826,467784.970780384,169735.0276593821,1531078.193841516,2573751.968438059,357165.76448572165,383097.90934565815,2919290.1807991667,686599.7465977722,-259827.09393891867,4110568.533210614,-32360.36872256931,3501706.51896274,-167835.4059786822,3864789.683796948,-1462536.3280454956,8124069.118553298,-486980.2456925034,-1097209.6373326615,415212.4915899953,-905044.3834416076,342492.1917035505
105,-4.666666666666667,Inhale,2,425393.82843479776,695938.2659028299,-42561.087762463365,989889.3546998086,5205404.3508320805,170184.14988268173,5090023.640900927,324346.3091400361,-42042.062533393044,905263.6281860442,1834004.4799012842,230507.05806975026,-139902.8459868439,1913957.9327038887,-328255.5949263758,124220.40311191113,3119394.992484287,-185278.51530529073,2421602.686820487,-426597.1468031997,3353420.9865081673,-1269021.1931998213,6977151.505480538,-243249.04392344272,-1115303.2211315695,422059.5714508688,-919969.0576664348,348140.07425963477
106,-4.333333333333333,Inhale,2,-375987.1779435773,-231873.81458393764,-746350.3996139176,285894.92200586025,2920497.531146328,166236.13251238424,2221425.7850628714,138458.89251114873,275923.74306461,-944973.9745064614,-1069580.128232493,-308079.8154450957,72088.69500437532,237436.9041429441,-765981.0813561592,289867.0431603785,928755.2861306327,-365927.702810712,22190.102839316995,-630357.4845520661,236542.51027996076,-89513.80093512284,1628689.639157426,547233.9323789827,-829744.3843162569,313996.72539542546,-684422.9846023127,259003.3509266616
107,-4.0,Inhale,2,52061.43676113451,-275000.8132965758,-168281.38391576774,218581.77547807567,2067966.3342934207,181803.22194289954,1616003.077647016,234916.70263338095,1169062.875838143,-320197.2060535162,-99077.41534312686,-72202.01904235002,-282144.33213464863,838249.5398257519,136900.80361900426,-51806.80321903286,1153624.5503995551,-146786.22670856668,818941.2323608054,-220949.3037103687,260565.60978419575,-98604.76282743335,1258424.3948863337,412111.878726208,-700219.8947040252,264981.3100874101,-577583.4091437275,218572.49357982067
108,-3.6666666666666665,Inhale,2,1001067.1231331126,310940.01706108864,988283.3145868122,644446.8198152905,3033823.172727276,152514.73991225573,3324869.136804287,377677.3404221987,1003855.9592232676,1475559.252147404,2684181.822414467,453560.66314328084,143248.83920609287,1604422.0912617564,1241976.8035857026,-469996.12978923245,2386376.337165913,81050.55550958417,2582803.6859053113,85513.65647167253,2697506.0807176935,-1020806.0362801692,4698769.245069423,-284176.7074641504,-660165.8950186202,249823.8411392235,-544544.4654303154,206069.7031631278
109,-3.3333333333333335,Inhale,2,480441.8983071832,-223369.58167497235,698077.678148501,176994.68291346708,2031360.5064622893,24720.702806062756,2107397.1412384855,134071.80129602292,88566.40911658609,371798.66046582523,773934.9247945485,73580.0284612526,1595833.4202855374,-121862.31064937786,1371269.9827799536,-518924.01125529705,725558.3708315942,-94940.30808770981,684313.8175454991,-251494.65910918,989326.3316606235,-374386.6597481007,1776489.7011119004,105720.83192623993,-281781.14041943883,106633.26807906337,-232430.00227044418,87957.52158866632
110,-3.0,Inhale,2,-109213.00128068979,-1157222.5530468102,256431.24275679296,-726513.2258184252,-330839.0326791846,-55547.17238697737,-700615.713412353,-86050.99642240588,151781.93400905738,-1288847.1194199396,-1927171.868353354,-365196.76086365245,1091497.8339247843,-1431352.9100463926,580318.1525730881,-219607.39119147943,-1251876.3408521253,-200172.500486401,-1306778.933400717,-376750.579502239,-2262112.3843798935,856041.8058834327,-3417860.314574359,771621.3733295747,145312.76583249884,-54990.10718482445,119862.69358586954,-45359.141917004745
111,-2.6666666666666665,Inhale,2,739672.2805291028,-657061.4962669779,1156210.3166554128,-530800.3895790852,-275453.7025910293,-12744.743878779553,-61596.622144968635,131386.04168240353,461625.7688043599,188414.34755086096,371450.47528740007,134874.5007119974,-1180763.285271018,-118842.15944169629,-241069.23356719766,91226.83005087296,-53371.56589453529,29584.46859205699,414745.0160647135,55235.97441984584,-623427.1048798697,235920.93318755968,-1043017.6136641793,167104.42116327974,169328.77562238512,-64078.38614594508,139672.54034027387,-52855.70004869267
112,-2.3333333333333335,Inhale,2,926937.9040517624,88451.33318414589,1393141.7787245843,-25919.075751573746,407744.3449463423,-28208.410255468054,1112296.1339814053,176768.6219036947,-267174.66821987124,1357898.0799800325,1926349.8404165632,388618.3450296158,-1717705.456426123,717818.8758625753,-552022.5986818268,208899.62210856203,646958.6828079792,63695.08411006053,1094510.8092934457,134269.78093522735,1305019.8147214048,-493853.2349771032,1698648.3696966763,-402616.4310138005,185925.3034396775,-70358.94132181109,153362.3529108117,-58036.27903142039
113,-2.0,Inhale,2,-307646.7898350139,-488881.701549045,159102.9759814906,-577981.1195740772,-1410643.2843662952,-162317.94081751528,-1220717.21797724,-256480.2511041564,-625672.2473444624,-526201.2399385134,-1231998.9269630462,-217639.76343067645,-1214996.3646447938,-59693.810336858696,-682149.3107303508,258142.93395499277,-1501141.4705390437,-147828.3188539522,-1443557.20340618,-179713.7229912842,-1573521.384446966,595461.170205049,-2926107.7293226575,238258.8229494109,543729.0812437165,-205761.14070778395,448500.39076378546,-169724.14239892198
114,-1.6666666666666667,Inhale,2,-532614.5732541765,-796371.163677408,-229716.74949982224,-1018496.8045059551,-2862273.253331416,-233527.4693844911,-2886908.7869081204,-436095.47737141565,41042.32408076713,-1309603.2888778728,-2191319.7279811525,-321374.7978327455,-1882475.2251003252,26428.590858264768,-795532.8110875303,301050.1816555755,-2149355.368255218,-71491.21327582098,-1868477.4857666113,-24787.31664731382,-3054605.531333066,1155941.7000498406,-5315575.7803539615,425505.60752805,799128.950536649,-302411.05378973245,659169.5367231809,-249446.7934025939
115,-1.3333333333333333,Inhale,2,168043.06179535566,208543.38605465717,242793.8772306235,-293834.14293840015,-1900550.4224729524,-204863.55294552428,-1448452.482278874,-210794.11847801312,-172423.67080453524,455629.74960076367,606622.5341379951,205660.8531498029,-1132079.0369261592,143043.73791671448,-265182.24036391225,100351.8151869216,-465289.35461819154,168346.23315027918,55108.231029478375,352017.58829233807,-119163.24697372627,45094.4532370311,-1031933.2852189488,-450442.4951462682,745114.2660088417,-281970.50078861194,614614.9819763744,-232586.19807180823
116,-1.0,Inhale,2,-431866.555374214,663741.4795911622,-511003.3612738871,198185.8172111608,-2035977.1376114239,-188956.0960095338,-1727858.3972947067,-260661.45275601494,-1199401.286020446,525170.4158720415,153061.8215719336,42733.410907892496,2106646.0356325773,-1764993.2235232152,767640.9680399759,-290495.18719256186,-860833.4247857648,135401.8782942763,-770008.1415436513,262144.59275866696,337785.6427557093,-127826.81957923758,-675456.6344647266,-572131.141539702,745239.260441668,-282017.8019133217,614718.0848890183,-232625.2148793464
117,-0.6666666666666666,Inhale,2,-1321064.121013322,47453.843840949085,-1525868.5805172017,-244660.22528654203,-4074262.5151497177,-134841.8539832288,-4369392.425892915,-466409.5262075638,-957784.5166750647,-1180094.665359153,-2623713.8241617805,-448584.97311348,2933696.117414993,-2963877.038379103,824197.7351017733,-311897.7299419051,-2720030.888851408,83859.64885246944,-2798132.6064318423,174140.37090217695,-2470554.804936257,934921.8064297829,-5107658.239901699,118454.93434715715,765596.4776237188,-289721.4991653314,631509.9398328984,-238979.6868894676
118,-0.3333333333333333,Inhale,2,-761390.232308024,86251.14704326741,-1029227.5191732434,-356765.55851835816,-4529133.546532444,22281.24668348319,-4714384.270644952,-257795.77370045148,-41515.92920353364,-1038337.0115037299,-1742424.2972093923,-200633.33429860105,116432.60649638253,-1442734.2837032897,-503061.3900776324,190371.43503828972,-2387530.449779009,279666.20948387624,-2046275.1876440316,515325.0405199474,-2320724.2953601084,878222.0682206368,-4693802.641874443,22851.395131942452,492831.9219765296,-186500.33985886248,406517.35802276654,-153836.6774735489
119,0.0,Inhale,2,-362340.3273241372,697395.217570528,-505310.40303352114,10393.704301537247,-3764733.5790928123,160808.42007432538,-3678597.494075695,-11123.084329248135,-55579.660994868,-202557.82198530214,-38071.67871790529,47010.84006728737,-892474.910820489,-497292.1172911283,-1475649.931506284,558424.0822609222,-1681807.8894552798,403181.07625841635,-1362692.5426287628,699838.6149944575,-620847.9079148159,234944.89837914973,-1950829.734580621,-369267.13270097686,92217.3701968818,-34897.43686576374,76066.4235098596,-28785.501108656408
120,0.3333333333333333,Inhale,2,-1131312.8497592716,488116.507639906,-1084518.8926882895,-206185.57256539405,-4617665.688973631,232545.40756343034,-4933112.615128643,-197420.0811639143,124261.26660884317,-1244216.463752977,-1560290.6481805516,-398243.5981717465,1437298.7600020624,-1616839.3146998796,-884949.6262967542,334887.8161146761,-3077105.06774908,378765.0494659677,-3178910.539196385,552175.7797066678,-2070884.969033623,783676.4083471359,-4257168.461920156,130843.0020890775,-222785.85520125294,84307.92701930545,-183767.14904755919,69542.23990769881
121,0.6666666666666666,Inhale,2,-1318419.438699529,-30762.84809782748,-1148087.1944160168,-748906.5821525805,-5998594.336998384,347693.296042715,-6578673.570724103,-381628.7051696163,1317972.47124788,-2271494.6012035445,-2552405.78717324,-645664.1641615523,2481812.7725061327,-1862830.687611589,-68018.97399721501,25740.138172169412,-4236654.07754057,542054.8846147507,-4222043.119778709,634370.6439388999,-3890249.5158679336,1472170.9866831629,-7162921.641823507,687407.778449239,-582001.548601545,220244.43176743324,-480069.81965329533,181670.830416675
122,1.0,Inhale,2,-660661.521143266,79231.59511302735,-279558.1957071176,-846857.6333662278,-6184439.564080394,493756.6271481184,-6368453.097787352,-296821.2985912686,1928523.5859946636,-1786365.596131874,-1139539.3011457005,-403195.34400093305,711616.354603327,-721933.726662729,-626803.7726927287,237198.75158082467,-3960989.2103398615,839910.7521698386,-3593840.6218178603,944530.8867880362,-3267778.9044163907,1236612.0153359391,-6301383.0713604605,551746.0340253018,-933823.0068375175,353382.76677523315,-770273.2811584033,291491.32252655574
123,1.3333333333333333,Inhale,2,-639159.21281754,169319.2449324463,66979.33368127384,-900168.2677312942,-6557468.643939129,559124.9099587343,-6471317.708838322,-356251.7426593126,1643176.2782302587,-1655699.6800172117,-970075.4840945347,-476256.0662491193,-527021.4059224352,-612697.7375123146,-1682808.1603954518,636818.1114817603,-4355091.17965222,969755.9502292915,-4113734.217354814,1077953.2892787978,-3210524.239124749,1214945.3698545117,-6401197.910099482,545114.3110870429,-1078498.9358826582,408131.87845635525,-889610.6735274785,336651.67688315356
124,1.6666666666666667,Inhale,2,-996451.7762487681,-176671.5374168928,-74113.11866379666,-1281307.4088863316,-7707712.497123832,567449.5995605108,-7726576.72262736,-635271.2992754217,1933492.331975523,-2347726.321008872,-2194070.8869245835,-813003.1120785482,-28061.735747872073,-1388641.7478486437,-1766570.4737394035,668515.936256096,-5469923.025708309,1017790.1409707579,-5462002.987020709,1149775.6151451534,-4667636.4681378445,1766354.3062593823,-8851120.211927382,932041.1766634297,-1164493.146666901,440674.31092062325,-960543.8615260611,363494.6289710633
125,2.0,Inhale,2,-824157.3150591239,-334999.8150257778,223202.01105142166,-1567607.1562210938,-8385733.260383835,592286.5623999144,-8349862.78502344,-784866.0188704794,2722123.368348018,-2532882.3782416633,-2191097.416010613,-815591.2779023387,-272454.683522501,-1245906.7567474765,-1770239.4212125908,669904.3608287764,-5812346.843051362,1194737.7419003476,-5741851.521714186,1369449.1126126808,-5219315.404721881,1975123.8777458598,-9782187.157990038,1057587.4383276876,-1333341.9343929363,504571.0572380477,-1099820.4790317838,416200.5015838507
126,2.3333333333333335,Inhale,2,-622579.9570088033,-241227.55485236834,609784.661448312,-1653455.3894632526,-8721057.325156676,609048.9664550314,-8519138.778892554,-810873.6862390344,3019927.988940821,-2464155.798000345,-1835894.461740101,-681109.0115130171,-2081225.694490498,-335799.202274333,-2775633.394527661,1050371.4315560723,-5894443.717896708,1405043.2585061756,-5763967.183045013,1569104.5418245553,-5127403.497956223,1940342.0361392444,-9630246.464939104,950968.7775735823,-1380990.3789496913,522602.46045547933,-1139123.7768324253,431073.885531862
127,2.6666666666666665,Inhale,2,-709668.9455699082,-314118.8898412106,618336.6178096117,-1780504.263826812,-9399724.06095312,603912.955296149,-9267259.673746353,-897858.995405284,2979081.462615917,-2686375.239086817,-2402423.3009762103,-697413.8610769872,-2865848.1890747626,211108.98586044557,-3226887.8767851945,1221137.7933743992,-6357478.549363007,1475574.9498094418,-6276114.7451487,1643788.7265218107,-5684465.285491675,2151148.6175820283,-10490022.374189075,982305.1549377262,-1260419.6683651528,476975.3866026767,-1039669.8158852895,393437.935647443
128,3.0,Inhale,2,-683895.330358013,-466872.3564223838,520573.9803776299,-1857710.7091263155,-9984823.639410995,628987.5910725142,-10028978.091392614,-958505.9178985748,2715634.6538592214,-2537310.3852633606,-2824876.9745379565,-673045.6747030877,-1790296.2990319445,-14460.530477533874,-2207505.878745927,835377.2924761152,-6630776.863046851,1434414.0409982288,-6517141.4094286915,1679337.7435572941,-6191011.042394257,2342838.6271039704,-11343264.085033543,1064081.195268092,-1211689.9454813935,458534.79971333547,-999474.614802454,378227.03244016063
129,3.3333333333333335,Inhale,2,-572007.4591501883,-522582.27166628046,391445.60856233566,-1798990.9081334132,-10261974.200967388,681951.2903776092,-10421015.723048117,-897844.6409868824,2041365.0296334538,-1985790.5071151266,-2719462.9136197316,-597014.1091527428,-1811559.3540620727,-679738.1179437644,-1707324.0411521655,646095.5545392815,-6566657.698492168,1436989.9858058533,-6378772.176904865,1722349.3603945738,-6225309.722042346,2355818.1341647613,-11580842.305088457,1090516.8566137636,-1252968.459145968,474155.65640710876,-1033523.6111635879,391112.05289041327
130,3.6666666666666665,Inhale,2,-352873.8933257418,-493774.4758731102,222904.35872277347,-1683666.2990144314,-10173098.616154166,677844.6094663831,-10452379.41011705,-821917.6861866555,1525516.6750066574,-1595732.5274988206,-2349976.6384954103,-577271.9256902833,-3564512.824168432,-998134.7205343294,-2302933.8592471285,871489.7072810272,-6093593.119573921,1532853.986475912,-5914283.045908232,1792638.0589205455,-5833534.657227061,2207560.321555456,-11161438.396573247,985605.6079743445,-1189090.5436312486,449982.60181845294,-980833.2713274406,371172.6661572855
131,4.0,Inhale,2,-50072.31009355517,-325506.85160277237,79041.52793087915,-1484130.5100370215,-9383625.349669008,571470.4642114429,-9834531.488221565,-851105.8465902132,1345439.2882953892,-1369751.1029201946,-1809790.5717820565,-529900.8803396118,-3514602.0808351375,-830468.1724939803,-2040553.1465775573,772198.0625981248,-5253762.0078834025,1559664.5608689433,-5229886.804029767,1820987.4726929297,-4963305.0151597485,1878242.9280110125,-9685071.32600848,703531.1145501556,-1007141.5045439252,381128.3817210873,-830750.7799824871,314377.57153264777
132,4.333333333333333,Inhale,2,-376717.6123608318,-91279.98973283912,-293985.8256121615,-1280838.2184275133,-8618755.323818803,466185.503230808,-9298321.109538998,-954684.8158505368,926499.2382196726,-1322058.9041435262,-2045117.1061666296,-489993.44742711127,-1858921.7600905234,-686640.5534114073,-1516019.3583601152,573700.917003996,-5077605.007917665,1466021.695312785,-5310812.371246273,1739328.6149295324,-4763507.7121671345,1802634.4634424788,-8773266.746114058,584363.3127955574,-910789.1279450593,344666.1515355329,-751273.5549336371,284301.3349463427
133,4.666666666666667,Inhale,2,-1072048.239833061,198454.62392958245,-665088.9122084156,-1147153.5695810483,-8363557.519657304,532142.0652242101,-9221183.983080547,-909650.7161398965,552098.748840546,-1172152.1324552032,-2496116.810616773,-459151.6519896565,-3106729.899495165,23310.44184531067,-2791538.386402026,1056390.2916536992,-5240646.453046132,1519615.867041206,-5569197.434178516,1760102.9616573097,-5095703.062617819,1928345.7718944843,-8498835.405653687,647547.7046822126,-1112729.8045455073,421085.72408730094,-917846.3491627702,347336.7864860536
134,5.0,Inhale,2,-900880.4513272832,682375.6235840865,-490960.8730601971,-884365.973445609,-7422319.903584979,759257.773653157,-8272252.918252496,-591423.2972970064,478483.911574616,-356947.3188565544,-1274036.6606014166,-316652.77544569277,-6143687.9600859685,1543828.0864904148,-4025839.429244506,1523481.7151456098,-4053774.1267343233,1759008.9002147468,-4378717.89725835,1950100.7536781984,-3813252.466353698,1443033.3126361086,-6018024.724306797,420936.570067838,-1569499.7986601936,593939.2981781781,-1294617.6639892876,489916.7922259463
135,5.333333333333333,Inhale,2,-465422.22583925084,913600.2069749361,-445737.2091925442,-644245.1118701502,-5985512.199965773,945268.9295762328,-6869043.562049807,-279421.9310548283,-125680.85889754466,180990.22124523335,-169416.38770802636,-331862.67358663696,-5387465.355682589,1803373.1701541643,-2815776.5829894035,1065562.6518429143,-2693503.3709567664,1773263.1830165663,-3362556.2142158705,1901747.6020425004,-2197713.3960550325,831671.5638727618,-3492844.3873711545,270634.8254884175,-1944748.2059454739,735942.9963345947,-1604145.0795837836,607049.9681218815
136,5.666666666666667,Inhale,2,-982933.8783433315,443859.8934886533,-1122213.3081264137,-872261.9650998525,-5782561.64581699,1019826.5390850487,-6957020.700617447,-200462.66363196998,-1020134.8461575636,-545937.7660358533,-1590900.091965422,-686841.1156852694,-2321116.688897005,276411.5840749309,-1626981.983897443,615692.0430888219,-3191003.0802958324,1516049.5589548785,-4306931.133967288,1583521.7694850732,-3179046.63948251,1203033.4323978722,-5097623.036545174,819548.1062919847,-2121233.1991131995,802729.4802006646,-1749720.4978023819,662139.4697596378
137,6.0,Inhale,2,-1289877.5786464224,39874.00950751208,-1326397.680296013,-1257112.2221783272,-5884521.4621656155,1124022.9656021493,-7265449.694181361,-95256.69271437876,-1100560.3477556433,-967325.9533691354,-2577546.472980736,-837765.4330117287,-2513977.031320911,-139828.99954688206,-2683608.6323077967,1015546.8825280718,-3530186.921783428,1463862.4341793878,-4577443.371455874,1547750.417302744,-4330477.813690073,1638764.7552646303,-6539270.843459031,1280307.059267616,-2383351.09744245,901921.6691429723,-1965931.0774497786,743959.1425267801
138,6.333333333333333,Inhale,2,-450224.66016615904,294612.55379010976,-546067.7932332989,-1280205.7260650045,-4562040.257388127,1293416.7134656757,-5861433.9309781855,183454.3628980333,-1131972.8662006634,-72776.45754937534,-1032255.9588027064,-583181.7804389223,-4086816.195776847,1034717.7903790927,-3217118.1988091557,1217440.6946646897,-1980610.775734462,1645589.5510171708,-2836324.2257967796,1783467.1936153516,-2877741.4380301246,1089011.7548921898,-3556257.295003298,973657.5843561155,-2765853.570413597,1046670.4932854383,-2281442.081943539,863356.6631486275
139,6.666666666666667,Inhale,2,74606.16648260877,369435.56141561427,-144759.60473408177,-1319900.7235329403,-3362532.583175799,1422068.0031993461,-4658503.369102422,371943.1637962621,-2070610.9175488502,391339.956472936,-375076.278674204,-505975.3258967772,-2262820.2569336216,840751.7661846983,-1331949.7600576973,504044.22247940616,-1052732.1457258982,1631144.599562234,-2120216.1275350316,1775693.2274640321,-1903822.8611059242,720455.7878542556,-1496201.6705470013,829384.7144066452,-2986678.769773329,1130236.457447866,-2463591.9643386262,932286.8875458069
140,7.0,Inhale,2,-124525.66949756183,-56584.16739284955,-276864.4727149927,-1667284.3331891282,-3391359.885317806,1526122.7564539097,-4845626.6495438665,464505.3518180471,-2771185.883004327,51600.53733038073,-1398818.8304814242,-632852.2115778071,353453.92341878056,-410015.09396971524,145336.09482488764,-54998.93547864038,-1574418.886568645,1476400.689110512,-2700070.9702951694,1648731.6406089237,-2872091.6646465203,1086873.7345871269,-2761589.957248524,1243391.1769679736,-3164190.3571185404,1197411.4310899845,-2610014.179069754,987696.838875103
141,7.333333333333333,Inhale,2,180347.71001830307,-98235.19713585393,146075.36278036216,-1824704.3582203798,-2813362.218071533,1682453.6363893494,-4305220.860531876,686332.49221412,-2801665.6545863785,471634.06846968725,-988371.5471654437,-502536.8506380313,-319543.6574191173,37366.56969694191,-505807.0221679923,191410.45320076137,-1055133.6679169962,1540203.7214026724,-1901949.3060785723,1755723.320325835,-2621222.7597865416,991938.4555801079,-1954362.0545831544,1338292.0303190975,-3612800.5920638894,1367177.1413668778,-2980054.834635567,1127729.789151216
142,7.666666666666667,Inhale,2,548889.9764918372,219425.75988063338,575858.3340541876,-1753639.1770200992,-1580639.75797187,1834819.7907817569,-3074711.328287926,855503.1756716658,-3321047.4262719476,1000486.270731497,-108159.8510420082,-363003.9659008205,-1772485.3837688756,889316.266322439,-1160236.6388443282,439063.5383222538,189602.61217234487,1736749.104305752,-808823.3185633607,1843137.9407449486,-1542996.7007141763,583909.8407631189,442709.087242294,1191109.1615870476,-4152382.1194474683,1571368.7404723314,-3425134.0739635504,1296159.2794039713
143,8.0,Inhale,2,110183.90167695924,197396.70449100478,205562.4994455314,-1889111.5805862371,-1549241.9341685544,1963114.1328728136,-3082447.996927949,810253.8200367632,-3947958.936740761,459500.73594901385,-1001893.9863575238,-471720.1749766954,-907961.3090308071,-354479.83715358865,-629906.0555088875,238372.73559799587,147912.52734940907,1854282.038549907,-1234178.4177568303,1767234.7426611762,-2209942.8129594866,836299.4913816168,-77395.28552360147,1484616.0068649517,-4574215.5224180855,1731001.4053011877,-3773087.5908819106,1427833.885424016
144,8.333333333333334,Inhale,2,-152753.9553363193,233341.72544095854,2010.1133852712394,-1991215.1288011533,-2010188.9950960227,2177097.3234405704,-3325018.8030037987,888553.5344470087,-3763452.397210763,296465.4487787795,-1452524.5385295749,-384114.8170768064,369432.1501526312,-1722528.479416365,-263959.8836313211,99889.24379921149,-167517.81813309918,1964181.2803503328,-1209099.5193068825,1845721.4283390334,-2673050.6149489027,1011551.4558159144,-692639.1849281506,1743904.6589603191,-5114481.238925037,1935451.9192584332,-4218731.190476382,1596476.9441913303
145,8.666666666666666,Inhale,2,66090.84647638163,697284.2396453611,326074.4814403051,-1805095.3872131675,-1771638.4178534641,2451980.694127536,-2693828.2754188026,1178634.5663999675,-3860696.343556087,1073964.5051400973,-616135.3978207179,-86854.87903433267,51216.78681584263,-881773.0494884299,-558660.2507238158,211411.48123637817,83967.65379541526,2065761.2516751857,-229574.91703296918,2036607.0574901043,-1612147.7668804855,610078.3918786736,1017957.1419936013,1614448.2838475732,-5788742.21082529,2190609.7018725094,-4774902.121562714,1806946.4025235376
146,9.0,Inhale,2,-363787.94730853214,966917.6947848384,130882.13673712757,-1725504.3788261237,-2068013.824685464,2626513.5679529663,-2749932.8697189107,1297290.543559395,-4687644.67558539,1089614.2370286405,-1063798.0356433853,-36447.16629537964,-921210.4594043478,362604.2191007557,-741823.5971398553,280725.2266189365,-486767.1368887054,2074697.382487738,-542906.8832827354,2089498.363509022,-1751078.2796893273,662653.2895267389,970563.1552783108,1727397.9185506338,-6241469.006315531,2361933.225080012,-5148338.363417136,1948264.330433212
147,9.333333333333334,Inhale,2,-1178877.6240758388,1078613.3741877654,-482551.34204889915,-1686841.0260602306,-3127224.1935894666,2722403.8739507925,-3482674.370165642,1276767.9537209612,-4710265.429445147,568714.7195068992,-2033859.4518834564,17396.218391042326,-1321005.507226561,10151.711254207718,-685039.7981366372,259236.76911377907,-1446848.463762126,2137454.607814452,-1452068.2761621603,2198559.645689053,-2830555.2140407306,1071155.2678866745,-673749.4486979677,2000836.2179638955,-6511309.549219435,2464047.862373484,-5370919.043963935,2032494.6140591425
148,9.666666666666666,Inhale,2,-1617660.307147048,1642399.1223220439,-838366.246781702,-1253841.411820344,-3598278.8399834894,2869733.6624549823,-3420863.4639763376,1442164.163623314,-3891571.645296809,845070.1044305337,-1582208.5227049966,360240.1982975507,-689558.492513301,-1091837.2485264344,-583945.2098861913,220979.96344464988,-1541192.416008921,2320399.5142368944,-1329154.0417078075,2435124.983007193,-2445860.754944851,925576.9395278658,-164938.5937555941,1894571.3251886617,-6892158.992417969,2608171.1373162293,-5685066.530256193,2151376.1441441686
149,10.0,Inhale,2,-2408749.8225204432,2256151.8939944524,-1524979.2918082825,-777930.4335238937,-3948591.119868338,3020785.9058995605,-3549840.7084800606,1629138.609900461,-3604152.827172129,962867.35531307,-1629516.204720846,535615.5959196981,196381.2253801327,-1475889.8955243516,-486240.95732626127,184006.14844702676,-1937931.0736438734,2424893.403403465,-1623802.3454234481,2488600.089341418,-2252427.9418961196,852376.9624874904,204561.1459539135,1859921.3361533321,-7285606.532101933,2757061.8576522935,-6009605.682897567,2274190.149418782
150,10.333333333333334,Inhale,2,-3729133.833199188,2476468.246268264,-2777204.488376626,-574801.3895477564,-4945025.075745623,3078282.3760828543,-4666009.666038622,1605251.275733921,-3584696.785721927,269618.6849372898,-2868533.0942319147,468055.5899608104,-687834.0454242348,-823660.274443201,-954469.0369536113,361195.75830781437,-3130641.592743079,2396184.42623497,-2813280.9720668048,2401190.5637766784,-3583432.422235881,1356063.466684463,-1690461.257323661,2188698.198005903,-7508675.948211668,2841477.0914499233,-6193606.73000695,2343820.902399755
151,10.666666666666666,Inhale,2,-4592356.701276035,2813602.5775223845,-3753219.3621745463,-151869.11416718192,-5614681.890572401,3098256.429242074,-5251538.308767357,1578247.7484201351,-3115961.1114808046,122343.84221290884,-2988356.5256261537,619303.3313953358,-3030221.833856813,-82453.47154714758,-2040959.760327679,772351.9357528607,-3614970.810247207,2356679.791177408,-3177346.630792744,2441628.979535078,-4082206.5059679924,1544812.4741671034,-2491174.5194992935,2273980.7390044993,-7651840.282586923,2895654.1766305477,-6311697.268338777,2388509.4149552593
152,11.0,Inhale,2,-5112384.725897091,3364572.376904647,-4436469.179867024,531362.1270774361,-5813962.13238678,3131978.916823744,-5268556.914377075,1641659.2972321075,-2808122.6846607425,586032.7002014304,-2499231.4301918535,819535.0470681806,-3762258.3130027647,-501886.1307464859,-2420817.331526333,916099.8606891945,-3608524.2565050465,2301504.18714943,-3136210.3910158277,2482575.028400457,-3571258.4481043047,1351456.520154164,-1855110.11009486,2086483.9773998996,-7729798.286521254,2925155.500672547,-6376001.710447584,2412843.878233592
153,11.333333333333334,Inhale,2,-5948603.288816043,3596317.1575592253,-5358622.593413745,875176.8798391701,-6554015.114234999,3116392.623191738,-6128382.187722252,1598253.1989593105,-2856603.515074863,416559.1025928236,-3298345.6043619188,699898.4312608954,-2797135.7078047534,-1422405.979748909,-1684760.7310132917,637557.0146809792,-4402096.392741223,2211845.952817845,-3980224.5952125923,2405940.9268488972,-4221072.350570035,1597362.8996939287,-2864034.0761930645,2141617.2889704234,-7628410.676167341,2886787.8078643214,-6292371.122290841,2381195.901675426
154,11.666666666666666,Inhale,2,-6610188.838110746,3619471.5686641014,-6123335.336756784,980326.5272505991,-7424142.330727923,3032698.8071929365,-7143910.620443389,1488541.2809514557,-2574359.561548608,-11546.202166738407,-4018033.6774608856,598446.5611503869,-3143638.026495413,-1098210.1599395066,-1334604.292530456,505048.76619149075,-5282271.249332718,2179290.1505384813,-4692353.375131429,2440105.6293321205,-5234939.160607658,1981036.310874957,-4377624.893088563,2245626.2819673084,-7421011.936283177,2808302.7630653377,-6121296.189772616,2316456.7246188293
155,12.0,Inhale,2,-6694732.83077969,3739763.649695143,-6384671.619509365,1317149.0996031293,-7669887.932837027,2931158.1484766905,-7329818.593864042,1467357.0857789912,-2081505.1371943126,112378.84419902711,-3632888.8910350734,748553.5791208919,-4261517.609627154,-308750.93145834806,-1762971.3580145845,667153.9378222737,-5494931.767202074,2189166.083778951,-4702287.323636451,2613255.435320888,-5165296.574697207,1954681.7559815606,-4446830.928505399,2111020.476193276,-7203793.736396277,2726101.780750791,-5942121.577100737,2248652.4192009326
156,-5.0,Exhale,3,-616672.5907508918,1171.8645589682276,-1036369.910828365,528104.0407463538,2059590.543481664,-280819.68412969616,1836077.0120232797,282658.1236958201,-180997.4867350901,-618407.7239076862,-642080.73757584,-71041.22097389054,4486817.447755973,-1517879.4572932867,1991445.6972506924,-753614.5342578111,818861.4431781236,-798116.956440857,911822.6854099066,-886822.3031528433,692860.2984580854,-262196.2486092767,1228971.435990471,-80963.21935053452,671339.6519427283,-254052.27962082333,553761.250994365,-209557.57309088574
157,-4.666666666666667,Exhale,3,41085.32680537103,111166.30776982306,-167840.91211946594,430152.98953270644,1873745.3163996544,-134756.3530242928,2046297.4849600308,367465.53027416783,429553.6280116936,-133278.71883601582,770785.7484517,171427.59918672885,2716621.0298531675,-376982.4963444269,1432660.8985551787,-542155.9208491559,1094526.310378832,-500261.088885769,1540025.183370755,-576662.060303707,1315330.9099096286,-497755.2199565005,2090510.0064535188,-216624.96377447172,319518.19370675593,-120913.9446130234,263557.78948925715,-99737.08098100498
158,-4.333333333333333,Exhale,3,62587.635131097,201253.95758924203,178696.6172689255,376842.3551676402,1500716.2365409199,-69388.07021367688,1943432.8739090604,308035.0862061239,144206.32024728874,-2612.8027213534465,940249.5655028656,98366.87693854257,1477983.2693274054,-267746.5071940124,376656.51085245557,-142536.56094822029,700424.3410664741,-370415.8908263162,1020131.5878338013,-443239.65781294525,1372585.5752012702,-519421.8654379281,1990695.1677144961,-223256.6867127306,174842.26466161522,-66164.83293190134,144220.39712018188,-54576.72662440716
159,-4.0,Exhale,3,-294704.92830013105,-144736.82476009708,37604.16492385499,-4296.785987397467,350472.3833562169,-61063.380611900306,688173.8601200222,29015.529590014743,434522.3739925528,-694639.4437130134,-283745.8373271833,-238380.1688908863,1976942.9395019684,-1043690.5175303415,292894.19750850386,-110838.7361738846,-414407.5049896165,-322381.7000848497,-328137.1818320933,-371417.33194658987,-84526.65381182634,31987.070966942534,-459227.1341134042,163670.17886365624,88848.05387737238,-33622.40046763332,73287.20912159926,-27733.774536497393
160,-3.6666666666666665,Exhale,3,-122410.46711048686,-303065.1023689821,334919.2946390733,-290596.5333221596,-327548.3799037868,-36226.4177724968,64887.797723942596,-120579.19000504303,1223153.4103650476,-879795.500945805,-280772.3664132127,-240968.33471467684,1732549.9917273396,-900955.5264291742,289225.25003531686,-109450.31160120414,-756831.3223326686,-145434.09915526022,-607985.7165255706,-151743.83447906238,-636205.5903958624,240756.64245341998,-1390294.0801760613,289216.44052791415,-80000.7338486628,30274.345849791163,-65989.40838412348,24972.09807628997
161,-3.3333333333333335,Exhale,3,79166.89093983376,-209292.84219557265,721501.9450359637,-376444.76656431844,-662872.4446766264,-19464.013717379825,-104388.19614517136,-146586.857373598,1520958.0309578509,-811068.920704487,74430.5878572994,-106486.06832535534,-76221.01924065744,9152.02804396921,-716168.7232797536,271016.75912609196,-838928.1971780141,64871.417450567795,-630101.3778563975,47911.59473281201,-544293.6836302042,205974.80084680475,-1238353.3871251259,182597.7797738087,-127649.1784054179,48305.749067222736,-105292.70618476483,39845.48202430127
162,-3.0,Exhale,3,-7922.097621271162,-282184.17718441493,730053.9013972633,-503493.6409278776,-1341539.1804730713,-24600.02487626223,-852509.0909989688,-233572.1665398476,1480111.504632947,-1033288.3617909587,-492098.25137881015,-122790.91788932538,-860843.5138249223,556060.2161787478,-1167423.2055372873,441783.1209444186,-1301963.0286443129,135403.10875383395,-1142248.9399600844,122595.77943006757,-1101355.471165656,416781.3822895885,-2098129.2963750977,213934.15713795274,-7078.467820879287,2678.675214420112,-5838.745237629173,2209.5321398822866
163,-2.6666666666666665,Exhale,3,17851.51759062398,-434937.64376558806,632291.2639652815,-580700.0862273815,-1926638.758930947,474.61090010303406,-1614227.5086452323,-294219.0890331384,1216664.6958762514,-884223.5079675022,-914551.9249405563,-98422.7315154258,214708.37621789594,330490.6998407683,-148041.2074980193,56022.620046134616,-1575261.3423281575,94242.19994262114,-1383275.604240076,158144.79646555087,-1607901.2280682386,608471.3918115308,-2951371.007219566,295710.1974683186,41651.25506288003,-15761.911674921137,34356.4558452063,-13001.371067400069
164,-2.3333333333333335,Exhale,3,129739.38879844882,-490647.5590094848,503162.89214998734,-521980.28523447906,-2203789.3204873404,53438.31020519796,-2006265.1403007337,-233557.8121214459,542395.0716504838,-332703.62981926824,-809137.8640223312,-22391.16596508095,193445.32118776775,-334786.8876254622,352140.63009574194,-133259.11789069892,-1511142.177773475,96818.1447502455,-1244906.3717162493,201156.41330283077,-1642199.907716327,621450.8988723214,-3188949.2272744784,322145.85881399,372.7413983054539,-141.05498114780346,307.4594840724032,-116.35061714743156
165,-2.0,Exhale,3,348872.9546228952,-461839.7632163145,334621.6423104251,-406655.67611549713,-2114913.7356741168,49331.62929397194,-2037628.8273696667,-157630.85732121905,26546.717023687273,57354.349797037685,-439651.5888980099,-2648.982502621466,-1559508.1489185914,-653183.4902160271,-243469.187999221,92135.03485104674,-1038077.5988552266,192682.14542030403,-780417.2407196166,271445.11182880227,-1250424.8429010415,473193.0862630165,-2769545.3187592695,217234.61017457108,64250.65691302478,-24314.109569803622,52997.799320219754,-20055.737350275216
166,-1.6666666666666667,Exhale,3,651674.5378550818,-293572.1389459767,190758.8115185308,-207119.88713808727,-1325440.4691889575,-57042.51596096832,-1419780.9054741813,-186819.01772477682,-153530.6696875809,283335.7743756637,100534.47781534385,44722.06284805002,-1509597.4055852972,-485516.94217567815,18911.524670349954,-7156.609831855676,-198246.48716470826,219492.7198133358,-96020.99884115222,299794.5256011864,-380195.20083372924,143875.6927185727,-1293178.2481945015,-64839.883249617866,246199.6960003483,-93168.32966716925,203080.2906651732,-76850.83197491293
167,-1.3333333333333333,Exhale,3,325029.2355878053,-59345.27707604342,-182268.5420245098,-3827.595528579142,-560570.4433387544,-162327.4769416032,-883570.5267916154,-290397.9869851003,-572470.7197632975,331027.973152332,-134792.0565692291,84629.49576055062,146082.91515931685,-341689.32309310517,543445.3128877922,-205653.7554259845,-22089.487198970746,125849.85425717721,-176946.5660576568,218135.66783778917,-180397.89784111583,68267.22815003915,-381373.668300081,-184007.68500421604,342552.07259921415,-129630.55985272364,282557.5157140232,-106927.06856121802
168,-1.0,Exhale,3,-370301.3918844238,230389.33658637817,-553371.6286207639,129857.05331788577,-305372.63917725533,-96370.91494820105,-806433.4003331641,-245363.8872744601,-946871.209142424,480934.7448406549,-585791.7610193728,115471.29119800536,-1101725.2242453243,368261.67216361285,-732073.7151541186,277035.61922371894,-185130.93232743794,179444.0259855982,-435331.62898990075,238910.01456556635,-512593.2482918003,193978.53660204457,-106942.32783970836,-120823.2931175609,140611.39599876603,-53210.98730095564,115984.72148489013,-43891.617021507125
169,-0.6666666666666666,Exhale,3,-199133.60337864605,714310.3362408823,-379243.5894725454,392644.6494533253,635864.9768950704,130744.79348074585,142497.66449488632,72863.53156843006,-1020486.0464083541,1296139.558439304,636288.3889959839,257970.1677419691,-4138683.2848361284,1888779.316808717,-1966374.7579965983,744127.0427156292,1001741.39398437,418837.0591591393,755147.9079302661,428907.80658645544,769857.3479723207,-291333.92265633115,2373868.3535071826,-347434.42773193546,-316158.5981159201,119642.58678992157,-260786.59334162736,98688.38871838558
170,-0.3333333333333333,Exhale,3,236324.6221093862,945534.9196317317,-334019.9256048926,632765.5110287841,2072672.6805142758,316755.94940382155,1545707.0206975753,384864.89781060815,-1624650.8168805146,1834077.0985410914,1740908.661889374,242760.26960102492,-3382460.6804327485,2148324.4004724664,-756311.9117414961,286207.9794129338,2362012.1497619273,433091.34196095867,1771309.590972745,380554.6549507572,2385396.418270986,-902695.671419678,4899048.690442824,-497736.17231135594,-691407.0054012005,261646.28494633813,-570314.0089361233,215821.56461432079
171,0.0,Exhale,3,-281187.0303946944,475794.606145449,-1010496.0245387619,404748.65779908176,2275623.2346630576,391313.5589126374,1457729.8821299358,463824.1652334665,-2519104.804140534,1107149.111260005,319424.9576319782,-112218.17249760758,-316112.0136471642,621362.814393233,432482.68735046446,-163662.6293411585,1864512.4404228611,175877.71789927076,826934.671221328,62328.82239333001,1404063.1748435092,-531333.8028945677,3294270.0412688036,51177.10849221124,-867891.998568926,328432.76881240803,-715889.4271547216,270911.0662520772
172,0.3333333333333333,Exhale,3,-588130.7306977852,71808.72216430778,-1214680.3967083613,19898.40072060711,2173663.4183144337,495509.98542973795,1149300.8885660209,569030.1361510577,-2599530.3057386135,685760.9239267228,-667221.4233833356,-263142.48982406687,-508972.3560710703,205122.23077142012,-624143.9610598893,236192.21009809128,1525328.5989352653,123690.59312377997,556422.4337327403,26557.47021100105,252632.00063594614,-95602.48002780946,1852622.2343549482,511936.06146784255,-1130009.8968981763,427624.95775471575,-932100.0068021182,352730.73901921953
173,0.6666666666666666,Exhale,3,251522.18778247802,326547.26644690544,-434350.50964564725,-3195.10316607019,3496144.623091921,664903.7332932645,2553316.651769198,847741.1917634697,-2630942.8241836336,1580310.4197464827,878069.090794694,-8558.837251260498,-2081811.5205270064,1379669.0206973949,-1157653.5275612485,438086.02223470923,3074904.744984232,305417.70996156306,2297541.5793918357,262274.2465236084,1705368.3762958946,-645355.4804002498,4835635.782810681,205286.58655634214,-1512512.3698693237,572373.7818971816,-1247611.0112958786,472128.2596410668
174,1.0,Exhale,3,776353.0144312459,401370.27407241,-33042.321146430135,-42890.100634006114,4695652.297304249,793555.023026935,3756247.2136449604,1036229.9926616987,-3569580.87553182,2044426.833768794,1535248.7709231963,68647.61729088465,-257815.58168378138,1185702.9965030006,727514.91119021,-275310.44995057443,4002783.374992795,290972.7585066264,3013649.677653584,254500.280372289,2679286.9532200946,-1013911.447438184,6895691.407266977,61013.71660687171,-1733337.5692290557,655939.7460596095,-1429760.893690966,541058.4840382462
175,1.3333333333333333,Exhale,3,577221.1784510752,-24649.454736053845,-165147.18912734106,-390273.7102901941,4666824.995162242,897609.7762814985,3569123.9332035156,1128792.1806834836,-4270155.840987298,1704687.4146262389,511506.2191159762,-58229.268390145306,2358458.598668621,-65063.86365141309,2204800.7660727953,-834353.6079086208,3481096.6341500483,136228.84805490426,2433794.834893446,127538.69351718048,1711018.1496794987,-647493.5007053129,5630303.1205654545,475020.17916819995,-1910849.1565742674,723114.7197017281,-1576183.1084220938,596468.4353675423
176,1.6666666666666667,Exhale,3,882094.5579669401,-66300.48447905823,257792.6463680138,-547693.7353214455,5244822.662408516,1053940.6562169385,4109529.7222155062,1350619.3210795564,-4300635.612569348,2124720.9457655456,921953.5024319567,72086.0925496305,1685461.0178307232,382317.80001524405,1553657.649079915,-587944.2192292191,4000381.852801698,200031.88034706464,3231916.499110043,234530.37323409185,1961887.0545394772,-742428.779712332,6437531.023230825,569921.032519324,-2359459.391519616,892880.4299786213,-1946223.7639879063,736501.3856436552
177,2.0,Exhale,3,1250636.8244404742,251360.4725374291,687575.6176418393,-476628.554121165,6477545.122508178,1206306.8106093456,5340039.254459457,1519790.0045371023,-4820017.3842549175,2653573.1480273553,1802165.1985553922,211618.97728684137,232519.29148096475,1234267.4966407411,899228.0324035794,-340291.1341077267,5245118.132891038,396577.2632501444,4325042.486625254,321944.9936532055,3040113.113611843,-1150457.3945293208,8834602.165056273,422738.1637872743,-2899040.9189031953,1097072.0290840748,-2391303.0033158897,904930.8758964107
178,2.3333333333333335,Exhale,3,811930.7496255963,229331.41714780047,317279.7830331831,-612100.9576873028,6508942.946311494,1334601.1527004025,5332302.585819433,1474540.6489021995,-5446928.894723731,2112587.613244872,908431.0632398766,102902.7682109665,1097043.3662190333,-9528.606835286502,1429558.6157390198,-540981.9368319846,5203428.048068103,514110.1974942993,3899687.3874317855,246041.7955694332,2373167.0013665324,-898067.743910823,8314497.7922903765,716245.0090651782,-3320874.3218738115,1256704.6939129313,-2739256.5202342505,1036605.4819164552
179,2.6666666666666665,Exhale,3,548992.8926123178,265276.43809775426,113727.39697292288,-714204.5059022191,6047995.885384026,1548584.3432681588,5089731.779743584,1552840.3633124453,-5262422.355193733,1949552.3260746377,457800.5110678255,190508.1261108555,2374436.8254024717,-1377577.249098063,1795504.7876165863,-679465.4286307691,4887997.702585595,624009.4392947252,3924766.285881733,324528.48124729015,1910059.199377116,-722815.7794765253,7699253.892885828,975533.6611605457,-3861140.038380763,1461155.2078701765,-3184900.119828722,1205248.5406837699
180,3.0,Exhale,3,767837.6944250187,729218.9523021568,437791.7650279568,-528084.7643142332,6286546.462626585,1823467.7139551246,5720922.307328579,1842921.395265404,-5359666.301539058,2727051.3824359556,1294189.6517766824,487768.0641533292,2056221.462065683,-536821.8191701277,1500804.4205240915,-567943.1911936024,5139483.174514109,725589.4106195779,4904290.888155647,515414.11039836094,2970962.0474455333,-1124288.8434137662,9409850.21980758,846077.2860477999,-4535401.010281016,1716312.9904842526,-3741071.050915053,1415717.999015977
181,3.3333333333333335,Exhale,3,337958.9006401049,998852.4074416341,242599.4203247792,-448493.75592718954,5990171.055794585,1998000.5877805548,5664817.713028472,1961577.3724248316,-6186614.6335683605,2742701.1143244985,846527.0139540151,538175.7768922822,1083794.2158454924,707555.4494190579,1317641.0741080523,-498629.4458110441,4568748.383829989,734525.54143213,4590958.92190588,568305.4164172786,2832031.5346366917,-1071713.945765701,9362456.233092288,959026.9207508604,-4988127.805771258,1887636.5136917552,-4114507.292769474,1557035.9269256513
182,3.6666666666666665,Exhale,3,-477130.7761272017,1110548.086844561,-370834.0584612475,-409830.4031612963,4930960.686890583,2093890.8937783816,4932076.212581741,1941054.7825863978,-6209235.387428117,2221801.5968027576,-123534.40228605628,592019.1615787041,683999.1680232793,355102.9415725099,1374424.8731112704,-520117.90331620147,3608667.056956568,797282.7667588443,3681797.5290264552,677366.6985973099,1752554.6002852884,-663211.9674057653,7718143.62911601,1232465.2201641218,-5257968.348675162,1989751.150985227,-4337087.973316275,1641266.2105515818
183,4.0,Exhale,3,-915913.4591984109,1674333.8349788394,-726648.9631940504,23169.211078590157,4459906.040496559,2241220.6822825717,4993887.1187710455,2106450.9924887503,-5390541.603279779,2498156.981726392,328116.52689240366,934863.1414852126,1315446.1827365393,-746886.0182081322,1475519.4613617163,-558374.7089853305,3514323.1047097724,980227.6731812868,3804711.763480808,913932.03591545,2137249.0593811674,-808790.2957645738,8226954.484058384,1126200.3273888882,-5638817.791873695,2133874.4259279724,-4651235.4596085325,1760147.7406366079
184,4.333333333333333,Exhale,3,-1707002.9745718064,2288086.6066512484,-1413262.008220631,499080.18937504065,4109593.7606117106,2392272.9257271495,4864909.874267322,2293425.4387658974,-5103122.785155099,2615954.2326089283,280808.84487655445,1110238.53910736,2201385.900629973,-1130938.6652060493,1573223.7139216464,-595348.5239829537,3117584.4470748203,1084721.5623478577,3510063.4597651674,967407.1422496747,2330681.8724298994,-881990.2728049493,8596454.223767893,1091550.3383535587,-6032265.331557659,2282765.1462640367,-4975774.612249906,1882961.745911221
185,4.666666666666667,Exhale,3,-3027386.985250551,2508402.9589250595,-2665487.204788974,702209.2333511779,3113159.8047344256,2449769.3959104433,3748740.9167087604,2269538.1045993576,-5083666.743704897,1922705.5622331481,-958208.0446345145,1042678.5331484722,1317170.6298256053,-478709.04412489885,1104995.6342942961,-418158.91412216617,1924873.927975614,1056012.5851793622,2320584.833121811,879997.6166849355,999677.392090138,-378303.76860797696,6701431.820490317,1420327.200206129,-6255334.7476673955,2367180.380061667,-5159775.659359289,1952592.4988921944
186,5.0,Exhale,3,-3890609.8533273987,2845537.2901791804,-3641502.078586895,1125141.5087317524,2443502.9899076484,2469743.4490696625,3163212.273980026,2242534.5772855715,-4614931.069463775,1775430.7195087671,-1078031.4760287534,1193926.2745829977,-1025217.1586069725,262497.75877115456,18504.910920228656,-7002.736677119703,1440544.7104714867,1016507.9501218002,1956519.1743958716,920436.0324433349,500903.3083580272,-189554.7611253363,5900718.558314685,1505609.7412047258,-6398499.082042649,2421357.4652422913,-5277866.1976911165,1997281.0114476988
187,5.333333333333333,Exhale,3,-4410637.877948455,3396507.089561443,-4324751.896279371,1808372.7499763703,2244222.748093268,2503465.936651333,3146193.668370308,2305946.126097544,-4307092.642643712,2239119.5774972886,-588906.3805944532,1394157.9902558425,-1757253.637752924,-156934.90042818376,-361352.6602784256,136745.1882592141,1446991.264213647,961332.3460938225,1997655.414172788,961382.0813087138,1011851.3662217143,-382910.7151382757,6536782.967719119,1318112.9796001262,-6476457.085976981,2450858.7892842907,-5342170.639799924,2021615.474726031
188,5.666666666666667,Exhale,3,-5246856.440867406,3628251.870216021,-5246905.309826094,2152187.5027381047,1504169.7662450497,2487879.643019327,2286368.395025131,2262540.027824747,-4355573.4730578335,2069645.9798886818,-1388020.5547645183,1274521.3744485574,-792131.0325549132,-1077454.7494306066,374703.9402346157,-141797.65774900134,653419.1279774704,871674.1117622377,1153641.209976023,884747.9797571542,362037.46375598334,-137004.3355985112,5527859.001620915,1373246.2911706497,-6375069.4756230675,2412491.0964760645,-5258540.051643181,1989967.4981678652
189,6.0,Exhale,3,-5908441.990162109,3651406.281320897,-6011618.053169131,2257337.1501495335,634042.5497521256,2404185.827020525,1270839.9623039935,2152828.109816892,-4073329.519531578,1641540.6751291198,-2107708.6278634854,1173069.5043380489,-1138633.3512455726,-753258.9296212044,724860.3787174515,-274305.9062384897,-226755.7286140236,839118.3094828733,441512.4300571871,918912.6822403773,-651829.3462816395,246669.07558251717,4014268.184725415,1477255.284167535,-6167670.735738903,2334006.051677081,-5087465.1191249555,1925228.3211112688
190,6.333333333333333,Exhale,3,-5992985.982831053,3771698.362351939,-6272954.335921714,2594159.722502064,388296.94764302135,2302645.168304279,1084931.9888833398,2131643.9146444276,-3580475.0951772826,1765465.7214948854,-1722563.8414376734,1323176.5223085536,-2256512.934377313,36200.298859954106,296493.31323332305,-112200.73460770675,-439416.2464833795,848994.2427233432,431578.48155216436,1092062.4882291455,-582186.7603711883,220314.52068912084,3945062.14930858,1342649.4783935025,-5950452.535852004,2251805.069362534,-4908290.506453076,1857424.0156933719
191,6.666666666666667,Exhale,3,-5963327.700158184,3742797.1608418077,-6468270.181596468,2949919.3397569116,187329.42960218858,2190587.9983176347,798337.1422878439,2099517.2439527777,-3461753.866923725,1940331.4910762247,-1802357.4150536298,1373349.91540901,-1298486.0640428772,-782279.7957833018,428904.3539705151,-162308.49548389483,-791798.2266244192,802311.2249517977,63935.11259621487,1171689.227722008,-550562.6456489475,208347.13813853488,3675561.884680395,1252140.3047615574,-5659426.778144068,2141673.399111682,-4668234.988812241,1766580.801955397
192,7.0,Exhale,3,-5941335.593765964,3536735.206388134,-6701364.49087846,3035236.062344012,-303867.2420431636,2073491.632575494,12325.461586277343,2009524.570727958,-3658825.298389733,1870813.7221430873,-2472953.1776459836,1242220.2021602446,-142401.9531826367,-2215209.8443260314,795165.3901068487,-300911.1400579992,-1491696.3826337128,708762.9620439118,-542053.9484611098,1143460.1709113135,-1039233.86318109,393272.9598740215,2721390.913974674,1252199.2862310642,-5288838.319387091,2001433.1459463458,-4362551.378539145,1650902.2213622923
193,7.333333333333333,Exhale,3,-5679792.428622243,3451815.26266521,-6650211.625012971,3056784.006754642,-626906.3102327675,1996011.586834118,-471519.7498481283,2014067.2627468836,-3875420.0530954725,1966413.2159668673,-2417738.345093411,1215814.834061016,-2562728.7687200657,-1708803.02445053,-288568.4023145152,109201.7434429684,-1864357.0780586684,607591.2074576162,-543508.6806130265,1130340.0703309623,-1027395.8523520146,388793.15054263454,2576842.559371456,1097869.3100070648,-4925200.67089755,1863823.259077031,-4062601.21388926,1537393.3248127918
194,7.666666666666667,Exhale,3,-5195840.7882267805,3385423.8019764824,-6345465.747227475,3133840.202042371,-666521.5405658751,1938036.3678911226,-542365.5334124326,2087939.454206091,-3977397.2948301043,2235839.6604381762,-1914491.1217806118,1285989.2690008602,-6170634.394123691,146562.32350600665,-1781174.9209772206,674042.6366418588,-1763206.7649096572,476180.02295697934,-207075.2201513555,1115938.321810931,-547469.9210054892,207176.77118101108,3012516.849609635,869911.3679293196,-4567810.113874259,1728577.4331169864,-3767804.025345309,1425834.4476353868
195,8.0,Exhale,3,-4587375.101105529,3126332.817407845,-5987269.730637228,3125608.79276867,-471783.1534620025,1811044.045486264,-462823.239842896,2026315.855669046,-4013007.1329107126,2465895.9969884744,-1764859.0592824437,1242543.3744863884,-5766468.002063557,613949.5860274169,-1138585.0260656413,430870.0083140459,-1372068.9109928962,295437.5922349225,84158.20835371778,1034899.5502642621,-202236.2136075775,76531.41139542364,3213089.2160914843,725723.7197502953,-4179495.53847323,1581629.159161853,-3447498.8498188,1304622.6887568885
196,8.333333333333334,Exhale,3,-4000783.525127529,2792936.432527611,-5628572.362318374,2982363.5232936586,-60381.54132148854,1622141.3328498525,-209760.30413972068,1842243.4595285163,-4201585.625073231,2600208.865766579,-1751962.3005826692,1092693.253496724,-2538841.878296352,-671933.2769739464,823397.4917281088,-311594.8971615941,-900560.2173189478,78714.66727373388,450010.5883111938,885092.1393695734,12079.579719961765,-4571.225244685451,3312330.248889277,633849.7471137432,-3785644.016383665,1432585.5614398448,-3122626.4682348818,1181682.5810358536
197,8.666666666666666,Exhale,3,-3462411.2468968676,2556461.6258169217,-5196755.466420585,2780033.2589025027,463474.1687523194,1487020.5616131872,211483.10196475338,1771019.951352035,-4474849.610455908,2715203.501893359,-1333957.8154289443,1005183.0177998005,-1997251.4442476586,-1391464.36572351,1128656.3587331683,-427112.74392170383,-368861.3878251048,-112146.33291333253,1091929.9123393053,735087.706324121,421281.38745412126,-159423.7678868331,3778243.6928501185,507670.1371722907,-3444431.178940441,1303461.8027917622,-2841173.6340828855,1075173.5525356913
198,9.0,Exhale,3,-2808429.8586852583,2458388.760399317,-4676788.782098048,2644272.844932054,1278888.0936794556,1431428.2777580058,934447.7378029464,1874461.527855169,-4718331.121780787,3020756.872923115,-526332.8356296235,969272.2875858456,-4377651.993374552,-424877.41713998845,-217781.66684906709,82414.21277965649,490548.23860054684,-227483.0253441101,2016768.5528328426,639042.451163316,1310178.5480302325,-495805.43302360637,5103738.896145875,278323.4647735792,-3184633.7290323377,1205147.7315197417,-2626877.0996089615,994078.2039436678
199,9.333333333333334,Exhale,3,-2377262.39997754,2339200.735185118,-4404104.12691705,2575093.2727446132,2200390.7506365837,1354006.9125972101,1689651.1328182307,1926431.9965589575,-5220611.236045463,3236353.155852172,-360634.9154731916,730023.2361219014,-4995153.289014949,603072.0613031186,-710986.970932608,269055.8500804056,1151857.3031470226,-310610.2507658415,2437460.7237156443,536749.1699387714,1922615.7154641214,-727567.4897721502,6169347.999466117,146793.11457968006,-2980423.1754034455,1127869.1788200468,-2458431.9745272747,930334.2140062657
200,9.666666666666666,Exhale,3,-2342131.498035797,2036275.482258056,-4387019.250558808,2405507.3285791897,2685112.6787573425,1255185.0180984645,1956631.7958309555,1851527.2304287534,-5765093.532752341,3051189.81627719,-987669.386593546,364294.90354479046,-2941056.779005773,531132.660877446,419367.7030898171,-158699.5802512279,1099643.7534385754,-327479.2613494383,2167981.216368047,447822.3140564397,1617082.4652067225,-611945.8092960599,5797072.019098914,300503.2161592717,-2875132.7442254163,1088024.557717107,-2371582.1054361877,897467.9783183986
201,10.0,Exhale,3,-1698051.9167726163,1835603.6904138522,-3793709.552449216,2195467.445185989,3453139.6875593835,1273045.3611844243,2637895.6147687775,1924162.2623352476,-5837588.293871847,3335270.499540254,-319303.9660252619,401545.5921193366,-1894104.3928725922,571122.6313028471,1628414.4321980376,-616234.1185571055,1650995.9100719192,-175234.15815055402,2862625.700076876,490959.10220004723,2212986.9620265462,-837451.4760852671,6676399.620555977,293696.06758117134,-3003793.041258417,1136712.9402122244,-2477708.842970797,937629.0793666774
202,10.333333333333334,Exhale,3,-345791.79794548586,1844763.513764921,-2658935.294436324,2065677.5373661201,5027096.101698712,1396761.3605840027,4282732.653236262,2178820.5724660903,-6195766.546401777,4311120.4249228975,1473915.59306156,736533.3695397167,-2950385.046614963,1304084.2430253925,1628456.6819582183,-616250.1069585895,3160792.478978492,-48799.45324869726,4350332.474368988,481805.21745925443,4231066.676139815,-1601145.0108606513,9764771.007271856,-27245.077400525843,-3251664.2630343027,1230513.8184447743,-2682167.9084511506,1015001.6753754383
203,10.666666666666666,Exhale,3,64006.43758138691,1444545.6858485588,-2270961.5912920223,1719763.3827808418,5674800.443993768,1446834.989987091,4867321.921460596,2229798.9452584633,-7261603.636351556,4305269.857940124,948423.9903911061,613010.0288833523,-3763592.9498303407,1434125.8904612653,679356.6665053528,-257086.12518542574,3390611.006876382,-190606.58351944012,3968766.4976927517,207764.72977698775,4238074.3419898935,-1603796.8927789652,9864592.327522114,142690.55742972327,-3309372.447397531,1252352.0872671665,-2729769.0836135554,1033015.1906320511
204,11.0,Exhale,3,-380662.2781128958,702013.5356867103,-2408987.2588529126,1143244.8587563005,4981368.928226197,1424219.396801425,3956779.6232117005,2089275.7318985509,-7360946.389000935,3324333.9624999687,-969929.7793832895,225470.54470872524,-3537084.6631211084,986188.2348492721,25463.355743982396,-9635.992086620692,2590605.614208608,-303193.3299690731,2754114.27342547,34250.39856207615,2151343.7583929454,-814124.0942437097,6779091.792782717,776138.6120584845,-3287163.025116967,1243947.4677230793,-2711449.418701231,1026082.5558332603
205,11.333333333333334,Exhale,3,147755.96903729383,619222.2470668762,-1633032.7400930235,931304.8237757443,5395422.517207566,1491302.3482269049,4337416.840507458,2199118.270539994,-6085988.585466557,3487752.6464531645,54443.49767050716,391390.69599730184,-2931498.147782503,1143066.5737614373,469407.86761830485,-177636.07213618592,3620563.8180773323,-94909.53572595806,4085371.891844039,219805.94112554373,2558330.436378992,-968138.3745241185,7530098.9348638905,759864.2505125232,-3523053.420955924,1333214.491695407,-2906025.9796407325,1099715.356643419
206,11.666666666666666,Exhale,3,1037393.9118637865,947592.9452346931,-623605.5664538307,979642.1341578128,6742582.180338436,1614453.7588762445,5753539.983910674,2447308.100749855,-5653350.837719401,4191438.729821691,1999534.7326612682,710706.4656734125,-1689562.9911521417,1061669.0211439445,1397167.7763244875,-528724.4058366369,5241775.831476102,59432.83779421022,5896630.914708036,280206.1079232453,4573146.150680475,-1730596.7273905105,10688189.803901266,371602.32845994114,-3809269.9495776026,1441526.2253328827,-3142114.5563934245,1189057.3773968336
207,12.0,Exhale,3,723485.4657017841,584816.7725816098,-706130.4725567185,564286.9114019335,6260904.545171257,1656548.3472627664,5182476.989641663,2400129.649497436,-6125944.8109771125,3307936.3516323017,704058.4433421468,462313.5259466256,-322088.3561529817,-225277.22558669472,1805862.8706322664,-683385.1950187968,4547043.111999562,-69358.43814559639,4943739.966073854,57702.4637322798,3547812.924198958,-1342584.1277998267,8990992.25505921,724397.3647788784,-3820868.703600174,1445915.4937034731,-3151681.9050803785,1192677.909472982
208,-5.0,Inhale,4,-37364.18965113797,-991080.7702191683,-406371.64690897043,19618.66930133116,-2381940.050413093,-1127417.706194106,-3046596.1185875996,-1083659.4031367404,2097662.5230092546,-1414147.8755931763,-1064028.590052177,-738746.269023311,-1182401.5063264847,129511.26029214707,-1551158.2549001297,586998.3838577975,-1986062.3485119082,-498011.81473670684,-2596665.264313813,-486077.3715604463,-1632958.1887124828,617953.5934863719,-5206935.862821779,-327880.4650351443,2889371.0322952005,-1093412.6940078174,2383326.700278344,-901912.4366253634
209,-4.666666666666667,Inhale,4,802288.7288291253,-736342.2259365707,373958.2401537436,-3474.834585346143,-1059458.8456356053,-958023.9583305793,-1642580.3553844225,-804948.3475243282,2066250.0045642345,-519598.37977341615,481261.92412585265,-484162.61645050463,-2755240.670782421,1304058.0502181218,-2084667.8214014887,788892.1959944154,-436486.202462942,-316284.69789892377,-855546.1186547177,-250360.59524783894,-180221.8130525344,68200.59311393157,-2223922.314366047,-634529.9399466447,2506868.5593240527,-948663.8698653516,2067815.6957845837,-782514.9160035163
210,-4.333333333333333,Inhale,4,1327119.5554778932,-661519.218311066,775266.4286529607,-43169.832053282065,140048.82857672317,-829372.6685969088,-439649.7935086599,-616459.5466260994,1127611.9532160482,-55481.96575110483,1138441.604254355,-406956.1619083595,-931244.7319391959,1110092.0260237274,-199499.3826500302,75495.72380913174,491392.42754562164,-330729.6493538604,-139438.02039296893,-258134.5613991583,793696.7638716657,-300355.3739240027,-163866.68990975028,-778802.8098961152,2286043.359964321,-865097.9057029238,1885665.8133894962,-713584.6916063369
211,-4.0,Inhale,4,1127987.7194977223,-1087538.9471195298,643161.5606720498,-390553.44170947006,111221.52643471606,-725317.9153423454,-626773.0739501048,-523897.35860431433,427036.98776057095,-395221.3848936601,114699.05244713485,-533833.0475893894,1685029.4484132065,-140674.8341306861,1277786.4722325548,-483547.43414891476,-30294.313297125118,-485473.55980558257,-719292.8631531069,-385096.1482542669,-174572.03966893032,66062.5728088684,-1429254.9766112727,-364796.34733478696,2108531.772619109,-797922.9320608051,1739243.5986583682,-658174.7402770407
212,-3.6666666666666665,Inhale,4,1432861.0990135875,-1129189.9768625342,1066101.3961674047,-547973.4667407215,689219.193680989,-568987.0354069056,-86367.28493811407,-302070.2182082415,396557.2161785199,24812.146245646385,525146.3357631154,-403517.6866496136,1012031.8675753087,306706.82953597105,626643.3552396748,-237138.04546951302,488990.90535452374,-421670.52751342213,78828.80106349,-278104.4685373555,76296.86519104827,-28872.706198150576,-622027.0739459033,-269895.4939836628,1659921.537673761,-628157.2217839119,1369202.943092556,-518141.79000092787
213,-3.3333333333333335,Inhale,4,1801403.3654871215,-811529.0198460469,1495884.36744123,-476908.28554044093,1921941.653780652,-416620.88101449824,1144142.2473058363,-132899.53475069578,-122824.5555070494,553664.3485074561,1405358.0318865508,-263984.8019124028,-440909.8587744497,1158656.5261614681,-27786.261436660887,10515.03965197944,1733727.1854438647,-225125.14461034245,1171954.7885787017,-190689.84811824185,1154522.9242634135,-436901.32101513946,1775044.067879545,-417078.36271571263,1120340.0102901815,-423965.6226784586,924123.7037645723,-349712.29974817234
214,-3.0,Inhale,4,1362697.2906722433,-833558.0752356756,1125588.5328325739,-612380.6891065788,1953339.4775839676,-288326.5389234414,1136405.578665813,-178148.89038559835,-749736.0659758634,12678.813724973023,511623.8965710354,-372701.0109882777,423614.2159636189,-85139.57731455953,502544.3218987795,-190175.76307227853,1692037.100620929,-107592.21036618749,746599.6893852322,-266593.04620201414,487576.8120181033,-184511.67039664165,1254939.6951136496,-123571.5174378087,698506.607319565,-264332.95784960216,576170.1868462118,-218037.69372812778
