,time,condition,epoch,S1_D1 hbo,S1_D1 hbr,S2_D1 hbo,S2_D1 hbr,S4_D3 hbo,S4_D3 hbr,S5_D4 hbo,S5_D4 hbr,S5_D5 hbo,S5_D5 hbr,S6_D4 hbo,S6_D4 hbr,S6_D5 hbo,S6_D5 hbr,S7_D6 hbo,S7_D6 hbr,S7_D7 hbo,S7_D7 hbr
0,-5.0,Inhale,0,0.27284397692536766,-0.05756391327438848,0.14197832362502016,-0.028726591669559435,0.19999518570642774,-0.08026812987755672,0.15602529356665873,-0.006267242936223746,0.15955725135734805,-0.030431726363580578,0.18769697223904744,0.020017691524995745,0.354381236818488,0.0006213996601104651,0.2338399170723411,-0.038608622251957304,0.2624710780670154,-0.06455129477243171
1,-4.666666666666667,Inhale,0,0.23706225017754026,-0.04809596717860081,0.11969802120582375,-0.026374805170044265,0.17024148741735615,-0.06992049198689676,0.1316316165318152,-0.0067624610047514536,0.13444703218622744,-0.027981623933611297,0.1613642154691765,0.02004676479218388,0.3081436610103349,0.0003549355176119952,0.2038943764198594,-0.02813764529882562,0.2261910969716465,-0.05599289234637337
2,-4.333333333333333,Inhale,0,0.19869506465347356,-0.03801307231966834,0.09711951860004019,-0.022258188075034498,0.1421319600076177,-0.05953131670024435,0.10533414875562822,-0.00642548512389384,0.10840718461145495,-0.025752963290437705,0.13374125190461428,0.019136447305995858,0.25745377621255233,0.0004481447194139686,0.16567466864934227,-0.018761604806258023,0.1798212879879454,-0.046959719940966205
3,-4.0,Inhale,0,0.15883043624411813,-0.027744859057284462,0.07511453934907027,-0.01694611967100149,0.1162125342560064,-0.04952739774680446,0.07640428132315571,-0.003907516282247278,0.08164057364807269,-0.023627649592537544,0.10606796540499006,0.016894829707592016,0.204441748199685,0.0007736110567859119,0.12271048792581311,-0.010345178970409154,0.12722075424768592,-0.03762576255574759
4,-3.6666666666666665,Inhale,0,0.11811057316577876,-0.01763719454956465,0.05414748440147191,-0.011349994573147146,0.0911268099682295,-0.039932113551463824,0.04502162686043347,0.000915348654685288,0.05411898960782883,-0.02123028058996376,0.07886995193026468,0.013379244876322164,0.15029665068509754,0.0012292819021164237,0.07911536762877124,-0.002653141753688711,0.07329373979517627,-0.028068275255263453
5,-3.3333333333333335,Inhale,0,0.07712517604244501,-0.007980631272669158,0.034281438789359735,-0.006329996688398681,0.06500529216807219,-0.030307733243084976,0.01271526688416256,0.006600293419591479,0.026002162622636344,-0.018046497100064916,0.052190364231584276,0.008849566809548235,0.0955558509412467,0.0017359547233953612,0.03843902573159223,0.004492655886981832,0.02301931323589354,-0.018104406300038664
6,-3.0,Inhale,0,0.036648246179640985,0.0009419662391712655,0.015289605738669,-0.002351036574846583,0.03684032458378146,-0.019893606024158968,-0.018046620145196483,0.011013913510733876,-0.002073717855678429,-0.0136342243879855,0.025865487854979538,0.0036660276152848054,0.040599469489186635,0.002214432113524128,0.0029737019998577665,0.01104580749025377,-0.019469079179240057,-0.007367440397244923
7,-2.6666666666666665,Inhale,0,-0.0024215372672070335,0.0088060912952539,-0.003109685322129993,0.0005798719632812588,0.006940784084725615,-0.007979968646102814,-0.04457574883223303,0.012628745684422064,-0.028894951346347883,-0.007809652725966068,-0.0002413630778303654,-0.0017092302922122249,-0.0138763228292476,0.0025765777320106817,-0.02643087031123557,0.01661012131342083,-0.05171960643987161,0.004301229277688056
8,-2.3333333333333335,Inhale,0,-0.03940983438035463,0.015295313966456978,-0.021048017012660153,0.0027793923320405456,-0.02353502279530702,0.005649298409213544,-0.06455720779303394,0.01117606603874684,-0.05278129911219841,-0.0007326286693203638,-0.026149989210885866,-0.006641921983825908,-0.06657551539267631,0.0027336223132599503,-0.050219983617420076,0.020482227980437633,-0.0735544192079104,0.016405719096401913
9,-2.0,Inhale,0,-0.07402410217279999,0.020241875105116002,-0.038381085846372176,0.004740614774311339,-0.053269843377415436,0.020440135135042333,-0.07645229161345612,0.0074889132129389545,-0.07179274346917812,0.007120148605286192,-0.0516451775713991,-0.010381078544715544,-0.1154792481162027,0.002599200031409775,-0.06973125982072709,0.021919757095139925,-0.08699255473101083,0.027692550957188197
10,-1.6666666666666667,Inhale,0,-0.10610416458968093,0.02367445499124726,-0.05465256374842424,0.0070216434823378296,-0.08116007536198488,0.03511587266695608,-0.07981032203943565,0.0029664333771648363,-0.0840356524145001,0.01506283170574624,-0.07595784571799649,-0.012403985409828707,-0.15796743237374966,0.002078319392561972,-0.08661817181050653,0.020469088531772206,-0.0954140340500462,0.036505722644362915
11,-1.3333333333333333,Inhale,0,-0.13526005376777447,0.02572056908784792,-0.06913918127075788,0.010117850710706224,-0.10619958371697892,0.048048709275829875,-0.07532424446466818,-0.0011000189161372062,-0.08807351760813122,0.022337115768430636,-0.09753077324053973,-0.012833847278118208,-0.19127461929247283,0.0010656178563491563,-0.1020899520271671,0.016128068852003383,-0.10219151748360958,0.04138261661722778
12,-1.0,Inhale,0,-0.16068442302718888,0.026533287062684482,-0.08088266487222846,0.014277465256129223,-0.1270538838219837,0.05777592815795648,-0.064531721724529,-0.00413764677892457,-0.08334296124046246,0.028215099130955008,-0.1143265646873564,-0.012539473342420844,-0.21316025288353355,-0.000533421621203158,-0.11616274037316694,0.00934014514997822,-0.10921107522774608,0.04161742449640638
13,-0.6666666666666666,Inhale,0,-0.1812913080134101,0.026322462872172412,-0.0887744878908402,0.019364191762346564,-0.14188143817403104,0.0634082541426285,-0.04963836882719842,-0.0063564123818334525,-0.07054932678709157,0.032032544713184716,-0.12468407218604059,-0.012791260104839063,-0.22263127354539636,-0.002782507985918376,-0.127505300479366,0.0009767825204560852,-0.11600274344277857,0.03758441619957229
14,-0.3333333333333333,Inhale,0,-0.19602741007064575,0.02538825286063129,-0.09186541047943374,0.024940991565976227,-0.1487723467690283,0.0647571140182955,-0.03369222170779769,-0.008164635177579961,-0.05188243375500689,0.033198573285422965,-0.12831031409204388,-0.014603245505982387,-0.22048874724006792,-0.0057220747973863876,-0.1340462406419018,-0.0076932271576158956,-0.11996066289207857,0.03064093235693207
15,0.0,Inhale,0,-0.20409289009930273,0.024111364171594356,-0.08977583526660789,0.0305147105749029,-0.1466221841754874,0.06216544597039055,-0.02050348677430545,-0.009668295296691847,-0.0307465904449733,0.031280933444441994,-0.1269501092505645,-0.018086530169979756,-0.20941898168324402,-0.00939309261404189,-0.133843026346086,-0.01526523458168905,-0.11750157765107139,0.022539179922286268
16,0.3333333333333333,Inhale,0,-0.2051816030360643,0.022954104785154063,-0.08282146236562701,0.03564548716442344,-0.13593644187902457,0.05619563326539919,-0.013809997623540635,-0.01087923650107043,-0.010995557645858528,0.026195376113427152,-0.12431570437376158,-0.022304579744179837,-0.19352974191668773,-0.013838047164784728,-0.1258049650905932,-0.02074828203559609,-0.10563406045961606,0.014585155971854079
17,0.6666666666666666,Inhale,0,-0.19991992601857844,0.022447428736006938,-0.07177845365595399,0.039819083218577835,-0.1190315201691187,0.047408883126038484,-0.016028815116141036,-0.012246263270250206,0.003959024033176054,0.018385508257952692,-0.1250355063858005,-0.025811776015072594,-0.1774405258580354,-0.019048314627582233,-0.11030080310613054,-0.02403003274652695,-0.0833169753742673,0.0071125606642183665
18,1.0,Inhale,0,-0.1902183476102683,0.023088036754861593,-0.05769851465657495,0.042359600669794384,-0.09930132075874926,0.03638198356260543,-0.02727277281329163,-0.014639629217079266,0.011897025937355327,0.008835024518566957,-0.1328529924530851,-0.027411701686114735,-0.16509388899781838,-0.024863460256368264,-0.08960519212757626,-0.025772852027118858,-0.05203034133429636,-0.0002527687056550233
19,1.3333333333333333,Inhale,0,-0.17906262192929837,0.025182164057462438,-0.04204252757323212,0.0426546548882436,-0.07972199333676237,0.02390891904140095,-0.04508413396913255,-0.01856743730593799,0.012394319230550607,-0.001132484180055053,-0.14886755252797992,-0.026509396399273712,-0.1585568324888007,-0.030880749850542132,-0.06775535664188893,-0.026716186125969824,-0.015338490294929149,-0.007717067634497869
20,1.6666666666666667,Inhale,0,-0.1697726461109578,0.028756948327707612,-0.02685545098920248,0.040594432887827395,-0.061439096738081525,0.011175404256535107,-0.06506722447268264,-0.02339534994727274,0.007082952356551368,-0.010177545940099432,-0.17078295588206155,-0.023049204602717352,-0.15732532701264376,-0.0364655110220593,-0.049506451165978266,-0.02695357029556189,0.022220384423767208,-0.014617646345023034
21,2.0,Inhale,0,-0.1650441638662738,0.033606036778204264,-0.014434919860684717,0.03685196526571138,-0.043419133563424986,-0.0003243569090024181,-0.08223761153524625,-0.027441348602400585,-0.0007699975219146652,-0.017276822147394896,-0.193549470158877,-0.01758382507095716,-0.15853314702176538,-0.0409080282350404,-0.03861611089526701,-0.025816655054533812,0.05651301795067453,-0.01953693553157755
22,2.3333333333333335,Inhale,0,-0.16599848524036587,0.039416183896162346,-0.006348960352710038,0.032736446698051126,-0.02358476475220188,-0.009222497657761577,-0.09258927848954977,-0.028862626794586406,-0.0072997835723681405,-0.021964721341881006,-0.21102830624785524,-0.011577225863588624,-0.15799106748341335,-0.04366580566246953,-0.03621246434582494,-0.02244446726772604,0.08516375253665441,-0.02114587460279652
23,2.6666666666666665,Inhale,0,-0.17160394197211698,0.045829014119530984,-0.0024657018980442005,0.029698112792552092,-0.0009549470625039944,-0.014908553162816847,-0.09419309706238423,-0.026547686977699506,-0.009140418800821736,-0.024380075145764065,-0.21800867281023248,-0.007294110776064716,-0.15161995946648502,-0.04455569857061603,-0.04000463776221374,-0.016593171629108925,0.10846406077287174,-0.01918407152962788
24,3.0,Inhale,0,-0.1787071778615348,0.05234953743462454,-0.0007841568297254427,0.028773654492994637,0.022725645355053472,-0.01796317987339236,-0.08713667001745636,-0.02048941683728167,-0.0039462199151534825,-0.025087731971014722,-0.21176005306092674,-0.006896666670724519,-0.13663508850513562,-0.04378773678877886,-0.04461137405645674,-0.009153664186087582,0.12949546068139992,-0.014964269495622545
25,3.3333333333333335,Inhale,0,-0.18269758506434114,0.05823482906687705,0.0017955601482145037,0.030249149339399477,0.04372750023524467,-0.019923248601866703,-0.07242286612134824,-0.011649647712171841,0.009660410188617588,-0.024802267315735267,-0.19236351403918148,-0.011356535853405542,-0.11202164956695025,-0.0418384680610431,-0.04321039791296942,-0.001935604144829033,0.1532170492729491,-0.01089495507773089
26,3.6666666666666665,Inhale,0,-0.1787966615870995,0.06260443603129799,0.008184778938734804,0.033705141209855606,0.05977357234199106,-0.022270961987507845,-0.05083628169834246,-0.0016061562558809222,0.03215244897099139,-0.02418513347990664,-0.16181100010206426,-0.020067374131400032,-0.07833616885109444,-0.03925866770994629,-0.030369574253976492,0.0033739876575775976,0.18456777167069247,-0.00898430668152813
27,4.0,Inhale,0,-0.16351328184695582,0.0647758903661145,0.019898788992018,0.0383726688388557,0.07322653699834826,-0.025421374960934776,-0.022579437071868765,0.007771767649701101,0.0629355139255712,-0.02378256832145395,-0.12279061820883748,-0.031217188409367876,-0.03716274224976608,-0.036524087853080846,-0.004501446484443393,0.006326599941528183,0.22645930704141845,-0.009437149118661923
28,4.333333333333333,Inhale,0,-0.13557276342232089,0.06452538066283357,0.036362585813368306,0.043488477825523696,0.08998606469675995,-0.028788172604373944,0.012150588526563937,0.014787171471537816,0.10017091508903773,-0.024053668789403116,-0.07806751220942991,-0.04232502951412295,0.009341161983253453,-0.03397655532139091,0.031962164776382765,0.007814284243331355,0.2788092872187769,-0.010786101100929929
29,4.666666666666667,Inhale,0,-0.0961170544672934,0.062060829218257604,0.05492943488876718,0.0483931435073195,0.11470260004707714,-0.03178926672031309,0.05205864937572354,0.018727440124180362,0.14082264145146728,-0.025382283629045543,-0.030406441217727197,-0.05072403589297777,0.0585393126080816,-0.031839701428926837,0.07447303494792704,0.009134825667251247,0.33888730036588255,-0.01132662215211993
30,5.0,Inhale,0,-0.048382987054141444,0.057837062384539506,0.0717091062982197,0.05245008597538919,0.1476213765920374,-0.03446610368608083,0.09417586671369972,0.020378324306073625,0.18107477477995956,-0.02800701452190191,0.01752655592249381,-0.05422022145790727,0.10724891487608632,-0.03026231551477137,0.1182723319863469,0.011071868234814267,0.40223182900954085,-0.010191167323056896
31,5.333333333333333,Inhale,0,0.002984152931625404,0.05240651123110654,0.08306203667746419,0.05503136929803384,0.18568183859515094,-0.03711948353559305,0.13461103571773153,0.021347301193621736,0.21711141481091045,-0.03191738429003911,0.06335608505385876,-0.05184601229209553,0.15191764176652253,-0.029334356137259238,0.15912247409900027,0.013635964845806422,0.4634192008263114,-0.007336019132804466
32,5.666666666666667,Inhale,0,0.052940246594983566,0.046299598032699354,0.08713396193453106,0.05563394884299873,0.22472308931178853,-0.03983830154019194,0.17007226499006314,0.022622888398174616,0.24600122957821202,-0.03683819661919799,0.10500762708217933,-0.04420626984574953,0.1891868090735637,-0.029058563219317816,0.19361119111371733,0.016170366034703596,0.5167986018506877,-0.0032936345109434943
33,6.0,Inhale,0,0.09701101411839257,0.03993690787311598,0.08448456860097892,0.05403450555503827,0.2596026581819504,-0.04271132318598725,0.19875774287506962,0.023757496600225452,0.2662202404616745,-0.04236095055231063,0.1405432389973219,-0.0331441744352221,0.21658122320657264,-0.02932416845518113,0.21974165069322912,0.017471625930427895,0.5575329428980175,0.0006149438508910244
34,6.333333333333333,Inhale,0,0.13165590417660353,0.03371065019093272,0.07735527935329185,0.05038283652205226,0.28395690398061496,-0.04614785994730161,0.22000788022276987,0.023268133804396015,0.27753884459150824,-0.04813165081319265,0.16803994416280843,-0.021005296799554814,0.23297301569334175,-0.029931842947436477,0.23721187748438724,0.016139822087165898,0.5827529952275871,0.0022420340971714267
35,6.666666666666667,Inhale,0,0.1542457769983643,0.02818281694121708,0.06826184683617383,0.04511381746892046,0.2925367061157619,-0.05046295841539114,0.23350716573285016,0.019664075888616576,0.28056989445491565,-0.05395821814083796,0.18567690136528156,-0.009935752503307617,0.23878154129383455,-0.030659880355060218,0.24685599044557993,0.011322988035429004,0.5923850051630288,-0.0004808862648312694
36,7.0,Inhale,0,0.16334368343202946,0.024085851619350746,0.05894916940601631,0.03872565680734605,0.2842539644823567,-0.05517058371830891,0.23897201328049503,0.012303139495444591,0.2763606361153683,-0.05980512724330771,0.19208401152754626,-0.0014621954091113179,0.2359569570852935,-0.03132922593521608,0.2497933908667111,0.003286110066043446,0.5891391903233546,-0.008358215109170385
37,7.333333333333333,Inhale,0,0.15925561611198394,0.022035238056441746,0.050036954426338924,0.031655549965769435,0.2622719815730401,-0.05891668097415016,0.2364082858966735,0.0016833781091563458,0.2660869000861079,-0.0657123765935125,0.18678793704615462,0.0036194015180376475,0.22756002302061845,-0.03184649870490856,0.24689646110260338,-0.0067325775986578455,0.5773374971524241,-0.020595731432446845
38,7.666666666666667,Inhale,0,0.14437163135669806,0.022236493810297613,0.04121709057906669,0.024259893014635756,0.2319565044494013,-0.05996478245565462,0.2265967387644779,-0.010866599092763173,0.25092199610522237,-0.07166535416497927,0.17052524819829676,0.005183698982952458,0.21686988582522748,-0.03223452688821732,0.2384969085151171,-0.017002998915733928,0.5611450314714574,-0.035182866786488534
39,8.0,Inhale,0,0.12269679079487018,0.024400792040437512,0.031647809669506505,0.01679782892195197,0.19935169228994626,-0.05667624841178381,0.21120508239476177,-0.02378469172035049,0.2319398550316677,-0.07748376236476863,0.1452653023641464,0.003634652884186328,0.20614672446294083,-0.032651505944139486,0.22398927845786187,-0.025631769634033203,0.5430166075428166,-0.049319327278011235
40,8.333333333333334,Inhale,0,0.09820406312070806,0.02782924180758732,0.020145120312207408,0.009527281046452273,0.16973685183712958,-0.04806251666330195,0.19204615903909625,-0.035636423680409014,0.2098097188871988,-0.08282590494008356,0.11375208848296453,-0.0003131001216660023,0.19542578047298992,-0.03335430525308707,0.20178308353553595,-0.031014507277675837,0.5228222168191299,-0.06012334045055014
41,8.666666666666666,Inhale,0,0.07334282036480218,0.03157964907177283,0.0055534761750281915,0.0028558200117145497,0.14514544352727263,-0.03466899486574511,0.17022206200958764,-0.04505371914187942,0.1848972617054392,-0.08730229231456287,0.07866107668311233,-0.005833546984274895,0.18239782685237554,-0.034569863525500205,0.17076847309201154,-0.032732145262437076,0.49838218006615814,-0.0660933361478399
42,9.0,Inhale,0,0.04937502740941676,0.034651968760847314,-0.012239517014770142,-0.0027091569496769503,0.12278290335564461,-0.01918154014713146,0.14613637575472488,-0.05056411188883831,0.1582290203814005,-0.09060312791748576,0.041939414775361186,-0.012130515702408562,0.1640411355503365,-0.03633691964239589,0.13253756303108657,-0.03225139217375009,0.4673311493762315,-0.06841336323839346
43,9.333333333333334,Inhale,0,0.02761961393076593,0.036130477886313184,-0.03146256469422159,-0.006746530457359232,0.09739709256167456,-0.005624311166657281,0.11993662040339083,-0.05070312277247242,0.13220287836130504,-0.09258137537860714,0.004779479809403862,-0.018685441382560813,0.13896077726301456,-0.038427827256208684,0.09153481464829592,-0.03237793065644925,0.42863015725191106,-0.07036283843863424
44,9.666666666666666,Inhale,0,0.009888917304176658,0.03529430871028593,-0.0486779022707257,-0.009064463441012952,0.06678797274049071,0.002722320444093788,0.09167813643118397,-0.04455597150032135,0.10997385033548367,-0.09328799534232883,-0.0318353141859408,-0.02556347849395735,0.10888675599462055,-0.04038394710189034,0.05277998773211388,-0.035599687766978895,0.38288779960225394,-0.07492578764772662
45,10.0,Inhale,0,-0.0018882439435984667,0.03175649234645098,-0.05982536407661232,-0.009846099731150658,0.03496843395141841,0.004884713629607396,0.06136868884736436,-0.03247287476782294,0.09388893555873237,-0.0929627573804515,-0.06646854744730435,-0.03331549883626837,0.07863958370365237,-0.04162642108008842,0.01996766831937639,-0.04282374890929831,0.33226864597195616,-0.08298677103816766
46,10.333333333333334,Inhale,0,-0.006453023981264603,0.025627052840230737,-0.06170285955494774,-0.009769161599324784,0.009388726673032413,0.001970979017934733,0.029100733465144305,-0.016356369945278167,0.08393794490836451,-0.0919764010181259,-0.09697059781014794,-0.04229812746680236,0.05451641068158754,-0.041608428224022664,-0.004584267064262191,-0.05349461617716976,0.28034130132010066,-0.09368163654191165
47,10.666666666666666,Inhale,0,-0.00395461338070061,0.01760743912762831,-0.05336843051073088,-0.00994596860231548,-0.004461920099067562,-0.004138920851758755,-0.004691413934764929,0.0009151625330367656,0.07736117872442164,-0.09072257133976491,-0.12076080688784954,-0.05195648368473759,0.0418505510504027,-0.03998914068664512,-0.019159924817306547,-0.06645171239117506,0.23168286654332293,-0.10586496761766115
48,11.0,Inhale,0,0.004234723311865738,0.008890049277407308,-0.03647700764348713,-0.011644879975802111,-0.005710405973026971,-0.011820919808107297,-0.038869821730089876,0.016662547178645508,0.07009952837645797,-0.08949096768348806,-0.1355025279586807,-0.060666285845158034,0.043141188842039074,-0.03678562968188981,-0.022391523529681646,-0.08043140150190477,0.19121502684799604,-0.11892073410902108
49,11.333333333333334,Inhale,0,0.01648973104850713,0.0007992596765333802,-0.014251289440087644,-0.015865441147494375,0.003136342632120061,-0.019920318793284725,-0.07142495838086538,0.029364667076227754,0.05921179532522697,-0.0883890417851492,-0.13993594340747956,-0.0662399105642786,0.057620394546020054,-0.03242186637632765,-0.013947567491165267,-0.09399244166999819,0.1631878298048397,-0.1324152334107386
50,11.666666666666666,Inhale,0,0.03180324427632978,-0.005711059228947109,0.01012936574096515,-0.022924714680954143,0.019062998099030153,-0.02746433526077238,-0.09963741062660214,0.03884720413409885,0.04461310117593359,-0.08735789697324643,-0.1343333253880635,-0.06685892956574828,0.0822055895290802,-0.027622218712321744,0.004623664421086152,-0.10538121221930664,0.15005961087077546,-0.1453321164908139
51,12.0,Inhale,0,0.05002416891971231,-0.010409607292401804,0.03464649929174029,-0.03220110294374069,0.040339193041617045,-0.03347504407343379,-0.1206335440931384,0.04587989926482378,0.029052575609378222,-0.08625899193509275,-0.12016724727841296,-0.06191717282354935,0.11302566553564831,-0.023195916321380274,0.029838093001209428,-0.11281750061911766,0.15170903403321773,-0.15590119860322288
52,12.333333333333334,Inhale,0,0.0711312360870341,-0.013751051680331068,0.05841145443115987,-0.04212850711619659,0.06583579991367366,-0.037216690360120576,-0.13252081523921933,0.051642038025184335,0.016320696067173988,-0.08497050696202318,-0.09932086742227106,-0.05224018803103439,0.14637283735060688,-0.019813997544600902,0.05714951844484334,-0.11519141105936079,0.16520074193495649,-0.16239959828409567
53,12.666666666666666,Inhale,0,0.09412441690305139,-0.016515150967661894,0.08093012166259914,-0.05060888375073119,0.09326780381937019,-0.038611242697226184,-0.1354581503862911,0.057302324856943546,0.009067444691724725,-0.08345317163663366,-0.0734661768613394,-0.039641991167154715,0.1787959549505185,-0.017849690354122694,0.08249391539391945,-0.11270426347102695,0.18549389124476093,-0.1643228230614858
54,13.0,Inhale,0,0.11684971413119062,-0.0193904472020219,0.10173937856804169,-0.055844182215865124,0.11882553499368748,-0.03833461789097198,-0.13150630161984783,0.06381149718346232,0.007924693376590384,-0.08175250991571832,-0.043969044802204725,-0.02610402780356274,0.2071265729859462,-0.017310241810660924,0.10372182942489665,-0.10694308926019519,0.20707749869467368,-0.1629149977549772
55,13.333333333333334,Inhale,0,0.13702036445440208,-0.02270795387452253,0.12073559353662079,-0.057163420030266414,0.13859007464166284,-0.03746950232632198,-0.12325987631285891,0.07187294749657008,0.012197302591948152,-0.07990879589974002,-0.012182477105212086,-0.012924600191318832,0.2290802982379666,-0.01787008874218316,0.12081571620511836,-0.100187246810658,0.22569749584958282,-0.1604803278444831
56,13.666666666666666,Inhale,0,0.1535522954415093,-0.026392588049458317,0.13857148039231665,-0.055325627090077954,0.15072209381107798,-0.03688714655569281,-0.11244301543297429,0.08185220169062926,0.021058344523605544,-0.07783739251865461,0.02051152708529521,-0.0003924051238995669,0.24419371076189816,-0.01899543842661562,0.13476846126425832,-0.09416239123977045,0.23949316472648982,-0.15870808811431356
57,14.0,Inhale,0,0.16726600883345447,-0.030104037238472027,0.1564329332470997,-0.05207396311073422,0.1571884857531482,-0.036669712276097235,-0.09949822439320916,0.09351268559750955,0.034150282892900695,-0.07530183544647497,0.05320070543916963,0.011793844124812795,0.2542875651043295,-0.020119728063347986,0.14620836337436466,-0.0890482734408586,0.2492308374523159,-0.15723585381758348
58,14.333333333333334,Inhale,0,0.1804662309253081,-0.0334692983815336,0.17517449221054857,-0.04917545033419864,0.16309229692675528,-0.03609855306366206,-0.08426056418583924,0.10582168760002708,0.051270749088132186,-0.07199014661439108,0.08584171173663967,0.02394647570727323,0.2628342881776366,-0.020813092704534217,0.1549262450814107,-0.083728473063015,0.25736678789906475,-0.15399196130132867
59,14.666666666666666,Inhale,0,0.19562012247919625,-0.03627128617326883,0.19450274876322582,-0.04758001875734513,0.17311487420029312,-0.03438906802139402,-0.06702553548532686,0.11710543342638408,0.07159272768325727,-0.06760008405261334,0.11889984127358312,0.03619434381134658,0.2733704978083337,-0.020886821606359646,0.16036621214214503,-0.07715610717310696,0.26624340768079385,-0.14723479377785803
60,15.0,Inhale,0,0.21390185202032638,-0.03848652512904538,0.21288686499603007,-0.047206550000506144,0.18802728181474088,-0.03150934852211849,-0.049206356587322156,0.12561960971012032,0.09314859424290847,-0.06191322940743235,0.15254378851202455,0.04848570361240578,0.28779938295445495,-0.02038976780048537,0.16219617973023445,-0.06947989778627496,0.276539262159193,-0.13727164234354033
61,15.333333333333334,Inhale,0,0.23441491922752203,-0.04020289191796424,0.22823010250986692,-0.047344015043768777,0.2043855350840371,-0.028346160584121635,-0.03322341195508131,0.13040703035684048,0.1130613022076869,-0.05493798159638271,0.1862221826210344,0.060464505852860624,0.30553383886887836,-0.019519049632603053,0.16049897179160336,-0.062025758815191484,0.28700851483149326,-0.12638660726610745
62,15.666666666666666,Inhale,0,0.2545047975675127,-0.04155084802476691,0.23881204747116114,-0.047388161773937156,0.2170645690316184,-0.02623506860493928,-0.021810734945588564,0.13192682229803906,0.12840642980866368,-0.047133648998546225,0.21871845285091698,0.07134110964208995,0.3238518616477416,-0.018529451174884526,0.15590783220294746,-0.05653339587109599,0.2955224811014654,-0.1175332673973432
63,16.0,Inhale,0,0.2709971158532129,-0.04269216739462262,0.24399671536836823,-0.047528020935185274,0.22207363378699638,-0.026326290345377496,-0.017108299888238768,0.13169800636078885,0.13717220441540548,-0.03954718831804466,0.24810967237743878,0.07999103129210944,0.33915631375223426,-0.017689333468449517,0.14982439473031592,-0.05444452970997948,0.3005436178729092,-0.1130766712321714
64,16.333333333333332,Inhale,0,0.28172738436528794,-0.04381712093501074,0.24447361761310746,-0.04884360755099041,0.21788376959241793,-0.029101140254989825,-0.019827378054950235,0.13098673581956818,0.1388814392861604,-0.03363169882782157,0.27164528648859176,0.08527108620840712,0.34857512960105913,-0.017238845670578134,0.14426035447155014,-0.05655941942282695,0.30201051030263065,-0.1141566305398751
65,16.666666666666668,Inhale,0,0.2863933042103105,-0.04512088601231801,0.24195017704345753,-0.052608055353198936,0.20530756637081793,-0.03405900285682492,-0.02895110904837527,0.1297970761070227,0.13454964316651008,-0.030722400340938476,0.2861223070742825,0.08655051907289892,0.3512099040716308,-0.01729057468765505,0.1408926800735994,-0.06290421598444468,0.30101475018761825,-0.12051707884295097
66,17.0,Inhale,0,0.28620878105451897,-0.046725111904440515,0.23842005454526868,-0.059376618066840234,0.18699679703173874,-0.03955428734855307,-0.04233705579907988,0.12728630202291458,0.12590287727507257,-0.03146283196076546,0.28885336769220077,0.08439434600745212,0.34839792255272617,-0.017699769265095373,0.1398368809997432,-0.07258459855057667,0.29862678425600686,-0.13051556842104298
67,17.333333333333332,Inhale,0,0.2829391777004419,-0.04854884369825834,0.23543592778108166,-0.06863202308226346,0.1669562629065108,-0.043014711814229084,-0.05780420227993782,0.12313179077100177,0.11438150272486106,-0.0355549464021471,0.2787506773967393,0.08087579722464547,0.3428566343770515,-0.018011779420727257,0.13924532643595441,-0.08376687507097107,0.29490062183577326,-0.14139477557468474
68,17.666666666666668,Inhale,0,0.27775244106201535,-0.0502228934854646,0.23354038736076305,-0.07905449818287265,0.14884803113126172,-0.04189844165056194,-0.0740612392537961,0.11842961064779295,0.10044702401252932,-0.041962263744376616,0.25684243088163167,0.07901342709104317,0.3369724447102506,-0.01756651858350823,0.13609705143776343,-0.09424859325874191,0.28841620937832396,-0.15027052363088197
69,18.0,Inhale,0,0.26999100347455884,-0.05112063531049815,0.23185664758397032,-0.08899491566724821,0.1328290321555465,-0.03522094017239201,-0.0911407290696931,0.11540214407456517,0.08345620874766516,-0.04939368354405658,0.22579420211313111,0.08153146946809299,0.33099883218474635,-0.015735012784898098,0.12770089284090805,-0.10258086993983008,0.2763297218668797,-0.15575724451103343
70,18.333333333333332,Inhale,0,0.2571725466296805,-0.05055849218033967,0.2285010218877003,-0.09693278901641363,0.11439171933412827,-0.024541294805033476,-0.10992302019412065,0.1162103795016054,0.06254359634924961,-0.056780938987912186,0.18886568312888014,0.08955669666480642,0.3225820890890507,-0.012193371071698223,0.11303642986564562,-0.1087480021326901,0.2553946772122187,-0.15885402296202525
71,18.666666666666668,Inhale,0,0.23698339874566487,-0.04817880601914781,0.2220562681600495,-0.10181895855552017,0.08829038693029825,-0.013261116094731192,-0.13091175311433018,0.121615083549594,0.03818234779646551,-0.06353535827702053,0.14912365213325535,0.10181217584827232,0.30819993063736456,-0.007143691617538653,0.09269717975381812,-0.11357650430857343,0.2236568736500564,-0.16179118132552786
72,19.0,Inhale,0,0.20944640015927593,-0.044304413011309,0.21287670718962268,-0.10316321491625928,0.05440438563022785,-0.00463667718652892,-0.15328393807176519,0.1303445892241799,0.013034932588477809,-0.06952441232095846,0.10913911964520187,0.11482920948268416,0.2853856621801499,-0.0014070113475614055,0.06760223124352027,-0.11753536798750018,0.1816547439056621,-0.16582529618947048
73,19.333333333333332,Inhale,0,0.17744113815355148,-0.03996390412004919,0.20316009893711934,-0.10100749449898862,0.019310840779677027,-0.0002623165126019437,-0.17465523153418605,0.13956461236496795,-0.008581933557668849,-0.0748522967575759,0.07089754940771474,0.12440680279595133,0.25437228835682363,0.0036935849012104346,0.03859486220275078,-0.12031726795874828,0.13286320089754416,-0.17036093245734144
74,19.666666666666668,Inhale,0,0.14562481729872584,-0.03654558471364421,0.19596818314593606,-0.09600815768426053,-0.00787817551439293,-4.421635402580424e-05,-0.1913362712673471,0.14597536389267804,-0.02211600551483068,-0.07959475051119312,0.03573116841693962,0.12761422788726245,0.21849775613472525,0.006697429968906263,0.0075870771177634294,-0.12148398861521559,0.08356913583172165,-0.17402218727965277
75,20.0,Inhale,0,0.1186670760740224,-0.03531694077003876,0.1938514661113462,-0.08947614352917761,-0.02098337329625251,-0.0030311351345937263,-0.1991399706192281,0.14684359366512176,-0.024299116324085733,-0.08363158277888275,0.0043109986473206414,0.12398721033884794,0.18329798494498042,0.006510907429183525,-0.021557881395932427,-0.12123226159194093,0.04183062694893556,-0.17609848964740737
76,-5.0,Exhale,1,-0.05345628465131521,-0.0218005448305173,-0.0809909713390665,-0.003780979965111116,-0.14681493666663684,0.06039103179337821,0.009706380230038475,-0.003797186833788122,-0.05768989910323803,0.0404912381249114,0.003231649295080189,0.004582600529568308,-0.10870479765514694,0.019977421848006525,-0.10726316708848935,-0.01144784735292421,-0.24270459510385547,0.02362748333407658
77,-4.666666666666667,Exhale,1,-0.04819460763382935,-0.02230722087966442,-0.06994796262939347,0.00039261608904328537,-0.12991001495673093,0.0516042816540175,0.007487562737438074,-0.005164213602967899,-0.042735317424203445,0.03268137026943694,0.0025118472830412642,0.0010754042586755483,-0.09261558159649463,0.014767154385209022,-0.09175900510402667,-0.014729598063855072,-0.2203875100185067,0.016154888026440866
78,-4.333333333333333,Exhale,1,-0.038493029225519185,-0.021666612860809766,-0.05586802363001444,0.0029331335402598318,-0.11017981554636148,0.040577382090584445,-0.0037563949597125197,-0.007557579549796958,-0.03479731552002417,0.023130886530051204,-0.005305638784243339,-0.0005245214123665911,-0.08026894473627762,0.008952008756422991,-0.0710633941254724,-0.01647241734444698,-0.18910087597853578,0.008789558656567477
79,-4.0,Exhale,1,-0.027337303544549267,-0.019572485558208924,-0.04021203654667161,0.0032281877587090474,-0.0906004881243746,0.028104317569379964,-0.02156775611555344,-0.011485387638655684,-0.034300022226828895,0.013163377831429192,-0.021320198859138172,0.00037778387447443126,-0.07373188822725993,0.0029347191622491223,-0.04921355863978507,-0.017415751443297947,-0.15240902493916855,0.001325259727724631
80,-3.6666666666666665,Exhale,1,-0.0180473277262087,-0.01599770128796375,-0.02502495996264197,0.0011679657582928454,-0.07231759152569375,0.015370802784514123,-0.04155084661910353,-0.016313300279990433,-0.039611389100828134,0.0041183160713848125,-0.04323560221321978,0.00383797567103079,-0.07250038275110297,-0.002650042009268045,-0.030964653163874405,-0.01765313561289001,-0.11485015022047221,-0.005575318982800534
81,-3.3333333333333335,Exhale,1,-0.013318845481524686,-0.011148612837467098,-0.012604428834124206,-0.0025745018638231765,-0.054297628351037214,0.0038710416189765974,-0.05872123368166714,-0.02035929893511828,-0.04746433897929417,-0.0029809601359106507,-0.06600211649003522,0.009303355202790981,-0.07370820276022459,-0.00709255922224915,-0.020074312893163148,-0.016516220371861935,-0.08055751669356488,-0.01049460816935505
82,-3.0,Exhale,1,-0.014273166855616757,-0.005338465719509011,-0.004518469326149528,-0.006690020431483422,-0.034463259539814106,-0.005027099129782562,-0.06907290063597066,-0.021780577127304097,-0.05399412502974764,-0.00766885933039676,-0.08348095257901347,0.01530995441015952,-0.07316612322187258,-0.009850336649678276,-0.017670666343721077,-0.01314403258505416,-0.05190678210758501,-0.012103547240574018
83,-2.6666666666666665,Exhale,1,-0.019878623587367875,0.0010743645038596237,-0.000635210871483691,-0.009728354336982463,-0.011833441850116222,-0.01071315463483783,-0.07067671920880511,-0.019465637310417196,-0.055834760258201235,-0.01008421313427982,-0.0904613191413907,0.019593069497683427,-0.06679501520494424,-0.010740229557824775,-0.02146283976010988,-0.007292736946437048,-0.02860647387136768,-0.010141744167405379
84,-2.3333333333333335,Exhale,1,-0.0269818594767857,0.007594887818953179,0.001046334196835067,-0.010652812636539916,0.011847150567441242,-0.013767781345413349,-0.06362029216387725,-0.013407367169999363,-0.050640561372532984,-0.010791869959530477,-0.08421269939208496,0.019990513603023622,-0.05181014424359485,-0.009972267775987607,-0.026069576054352877,0.00014677049658429585,-0.00757507396283949,-0.005921942133400046
85,-2.0,Exhale,1,-0.030972266679592037,0.01348017945120569,0.0036260511747750134,-0.009177317790135073,0.032849005447632446,-0.01572785007388769,-0.04890648826776914,-0.004567598044889533,-0.037033931268761915,-0.010506405304251024,-0.0648161603703397,0.015530644420342602,-0.027196705305409474,-0.008022999048251846,-0.024668599910865556,0.007364830537842845,0.01614651462870968,-0.0018526277155083914
86,-1.6666666666666667,Exhale,1,-0.02707134320235039,0.017849786415626637,0.010015269965295314,-0.005721325919678943,0.04889507755437882,-0.01807556345952883,-0.02731990384476335,0.005475893411401386,-0.014541892486388108,-0.009889271468422396,-0.0342636464332225,0.00681980614234811,0.006488775410446335,-0.00544319869715504,-0.011827776251872632,0.012674422340249476,0.04749723702645304,5.802068069437005e-05
87,-1.3333333333333333,Exhale,1,-0.011787963462206712,0.020021240750443148,0.021729280018578507,-0.00105379829067885,0.06234804221073603,-0.021225976432955762,0.0009369407817103464,0.014853817316983408,0.0162411724681917,-0.009486706309969705,0.004756735460004283,-0.004330008135619731,0.04766220201177469,-0.0027086188402895926,0.014040351517660468,0.01562703462420006,0.08938877239717904,-0.00039482175643942223
88,-1.0,Exhale,1,0.016152554962428213,0.019770731047162215,0.03819307683992881,0.004062010695989142,0.07910756990914772,-0.02459277407639493,0.03566696638014304,0.021869221138820123,0.05347657363165823,-0.009757806777918872,0.049479841459411845,-0.015437849240374812,0.09416610624479423,-0.00016108630859965582,0.05050396277848663,0.017114718926003233,0.1417387525745375,-0.0017437737387074282
89,-0.6666666666666666,Exhale,1,0.05560826391745569,0.01730617960258625,0.056759925915327684,0.008966676377784946,0.10382410525946491,-0.027593868192334076,0.07557502722930265,0.025809489791462668,0.09412829999408777,-0.011086421617561298,0.09714091245111456,-0.023836855619229623,0.14336425686962237,0.001975767583864417,0.09301483295003089,0.018435260349923124,0.20181676572164312,-0.002284294789897429
90,-0.3333333333333333,Exhale,1,0.10334233133060766,0.013082412768868148,0.0735395973247802,0.013023618845854634,0.1367428818044252,-0.03027070515810181,0.11769224456727882,0.027460373973355934,0.13438043332258007,-0.013711152510417665,0.14507390959133556,-0.027333041184159124,0.1920738591376271,0.003553153498019883,0.13681412998845077,0.020372302917486144,0.2651612943653014,-0.0011488399608343954
91,0.0,Exhale,1,0.1547094713163745,0.0076518616154351805,0.0848925277040247,0.015604902168499286,0.17480334380753873,-0.03292408500761403,0.15812741357131063,0.02842935086090404,0.17041707335353093,-0.017621522278554867,0.1909034387227005,-0.024958832018347386,0.2367425860280633,0.004481112875532017,0.17766427210110414,0.022936399528478302,0.3263486661820719,0.0017063082294180344
92,0.3333333333333333,Exhale,1,0.20466556497973268,0.0015449484170279911,0.08896445296109157,0.016207481713464183,0.21384459452417634,-0.03564290301221293,0.19358864284364224,0.029704938065456925,0.19930688812083253,-0.022542334607713745,0.2325549807510211,-0.017319089572001393,0.27401175333510447,0.004756905793473438,0.2121529891158212,0.025470800717375477,0.3797280672064482,0.005748692851279006
93,0.6666666666666666,Exhale,1,0.24873633250314167,-0.004817741742555374,0.08631505962753942,0.01460803842550372,0.24872416339433817,-0.03851592465800824,0.22227412072864872,0.030839546267507758,0.21952589900429498,-0.028065088540826382,0.26809059266616364,-0.006256994161473959,0.3014061674681134,0.004491300557610126,0.238283448695333,0.026772060613099773,0.42046240825377806,0.009657271213113525
94,1.0,Exhale,1,0.2833812225613526,-0.011043999424738635,0.07918577037985236,0.010956369392517712,0.27307840919300275,-0.041952461419322594,0.243524258076349,0.030350183471678324,0.23084450313412871,-0.03383578880170841,0.2955872978316502,0.005881883474193328,0.3177979599548825,0.003883626065354781,0.25575367548649114,0.025440256769837775,0.44568246058334765,0.011284361459393927
95,1.3333333333333333,Exhale,1,0.3059710953831134,-0.016571832674454282,0.07009233786273433,0.005687350339385908,0.28165821132814967,-0.04626755988741212,0.25702354358642926,0.02674612555589888,0.2338755529975361,-0.03966235612935372,0.3132242550341233,0.016951427770440525,0.32360648555537536,0.0031555886577310376,0.26539778844768375,0.020623422718100883,0.45531447051878937,0.00856144109739123
96,1.6666666666666667,Exhale,1,0.31506900181677855,-0.020668797996320615,0.06077966043257682,-0.0007008103221885027,0.2733754696947444,-0.05097518519032989,0.26248839113407413,0.0193851891627269,0.22966629465798882,-0.04550926523182347,0.319631365196388,0.025424984864636825,0.32078190134683426,0.0024862430775751698,0.2683351888688149,0.012586544748715324,0.45206865567911514,0.000684112253052116
97,2.0,Exhale,1,0.31098093449673303,-0.022719411559229616,0.05186744545289943,-0.007770917163765112,0.25139348678542783,-0.054721282446171145,0.2599246637502526,0.008765427776438654,0.21939255862872842,-0.051416514582028255,0.31433529071499633,0.03050658179178579,0.31238496728215925,0.0019689703078826968,0.2654382591047072,0.0025678570840140325,0.44026696250818476,-0.011553404070224345
98,2.3333333333333335,Exhale,1,0.2960969497414472,-0.022518155805373745,0.043047581605627196,-0.015166574114898797,0.22107800966178912,-0.055769383927675616,0.250113116618057,-0.0037845494254808644,0.20422765464784287,-0.057369492153495016,0.2980726018671385,0.0320708792567006,0.30169483008676823,0.0015809421245739337,0.25703870651722094,-0.007702564233062048,0.4240744968272181,-0.026140539424266036
99,2.6666666666666665,Exhale,1,0.2744221091796193,-0.020353857575233846,0.03347830069606701,-0.022628638207582583,0.188473197502334,-0.05248084988380479,0.23472146024834087,-0.016702642053068182,0.1852455135742882,-0.06318790035328438,0.27281265603298815,0.030521833157934473,0.2909716687244816,0.0011639630686517619,0.24253107645996572,-0.016331334951361322,0.40594607289857715,-0.04027699991578874
100,3.0,Exhale,1,0.24992938150545715,-0.016925407808084037,0.02197561133876792,-0.029899186083082282,0.1588583570495174,-0.04386711813532293,0.21556253689267538,-0.028554374013126705,0.1631153774298193,-0.06853004292859931,0.24129944215180632,0.026574080152082142,0.28025072473453067,0.00046116375970417696,0.22032488153763982,-0.02171407259500396,0.3857516821748905,-0.051081013088327645
101,3.3333333333333335,Exhale,1,0.22506813874955128,-0.013175000543898528,0.0073839672015887006,-0.03657064711782,0.13426694873966039,-0.030473596337766095,0.19373843986316674,-0.03797166947459711,0.1382029202480597,-0.07300643030307861,0.20620843035195408,0.02105363328947325,0.26722277111391635,-0.0007543945127089482,0.18931027109411538,-0.023431710579765196,0.36131164542191874,-0.057051008785617405
102,3.6666666666666665,Exhale,1,0.20110034579416586,-0.010102680854824048,-0.010409025988209631,-0.0421356240792115,0.11190440856803238,-0.014986141619152446,0.16965275360830398,-0.043482062221556005,0.111534678924021,-0.07630726590600152,0.16948676844420293,0.01475666457133958,0.24886607981187725,-0.0025214506296046334,0.15107936103319045,-0.02295095749107821,0.33026061473199203,-0.059371035876170965
103,4.0,Exhale,1,0.17934493231551502,-0.008624171729358176,-0.029632073667661078,-0.046172997586893784,0.08651859777406233,-0.001428912638678265,0.14345299825696994,-0.04362107310519012,0.08550853690392554,-0.0782855133671229,0.13232683347824561,0.00820173889118733,0.22378572152455534,-0.004612358243417435,0.1100766126503998,-0.02307749597377737,0.29155962260767165,-0.06132051107641174
104,4.333333333333333,Exhale,1,0.16161423568892577,-0.009460340905385427,-0.046847411244165194,-0.0484909305705475,0.05590947795287848,0.006917718972072803,0.11519451428476309,-0.037473921833039034,0.06327950887810417,-0.0789921333308446,0.09571203948290095,0.0013237017797907932,0.19371170025616133,-0.006568478089099087,0.07132178573421774,-0.026299253084307018,0.24581726495801454,-0.06588346028550411
105,4.666666666666667,Exhale,1,0.14983707444115063,-0.012998157269220378,-0.05799487305005181,-0.049272566860685214,0.02408993916380618,0.009080112157586412,0.08488506670094347,-0.025390825100540634,0.04719459410135287,-0.07866689536896725,0.06107880622153741,-0.00642831856252023,0.16346452796519317,-0.007810952067297164,0.03850946632148025,-0.03352331422662643,0.19519811132771672,-0.07394444367594516
106,5.0,Exhale,1,0.1452722944034845,-0.019127596775440625,-0.05987236852838723,-0.04919562872885934,-0.0014897681145798153,0.006166377545913748,0.05261711131872342,-0.00927432027799586,0.03724360345098501,-0.07768053900664165,0.030576755858693818,-0.015410947193054213,0.13934135494312833,-0.007792959211231413,0.01395753093784167,-0.04419418149449788,0.14327076667586125,-0.08463930917968915
107,5.333333333333333,Exhale,1,0.14777070500404849,-0.027147210488043052,-0.05153793948417037,-0.04937243573185004,-0.01534041488667979,5.647767622026044e-05,0.01882496391881418,0.007997212200319074,0.03066683726704213,-0.07642670932828068,0.006786546780992211,-0.025069303410989452,0.12667549531194347,-0.006173671673853867,-0.0006181268152026864,-0.05715127770850317,0.0946123318990835,-0.09682264025543866
108,5.666666666666667,Exhale,1,0.15596004169661484,-0.03586460033826405,-0.03464651661692662,-0.05107134710533666,-0.016588900760639198,-0.007625521280128282,-0.015353443876510763,0.023744596845927817,0.023405186919078464,-0.07519510567200383,-0.007955174289838942,-0.033779105571409895,0.12796613310357985,-0.0029701606690985516,-0.003849725527577786,-0.0711309668192329,0.05414449220375663,-0.10987840674679858
109,6.0,Exhale,1,0.16821504943325624,-0.04395538993913798,-0.012420798413527135,-0.05529190827702893,-0.007742152155492167,-0.015724920265305708,-0.04790858052728626,0.03644671674351006,0.012517453867847465,-0.07409317977366495,-0.012388589738637807,-0.039352730290530456,0.14244533880756083,0.0013936026364636035,0.004594230510938594,-0.0846920069873263,0.026117295160600285,-0.1233729060485161
110,6.333333333333333,Exhale,1,0.1835285626610789,-0.05046570884461847,0.01195985676752566,-0.062351181810488696,0.008184503311417924,-0.023268936732793365,-0.07612103277302303,0.04592925380138116,-0.0020812402814459146,-0.07306203496176218,-0.00678597171922173,-0.03997174929200014,0.167030533790621,0.006193250300469508,0.023165462423190012,-0.09608077753663477,0.012989076226536046,-0.13628978912859138
111,6.666666666666667,Exhale,1,0.2017494873044614,-0.05516425690807317,0.0364769903183008,-0.07162757007327525,0.029460698254004818,-0.029279645545454768,-0.0971171662395593,0.05296194893210609,-0.01764176584800128,-0.0719631299236085,0.007380106390428791,-0.035029992549801214,0.1978506097971891,0.01061955269141098,0.04837989100331329,-0.10351706593644579,0.01463849938897832,-0.14685887124100036
112,7.0,Exhale,1,0.2228565544717832,-0.05850570129600243,0.06024194545772038,-0.08155497424573115,0.05495730512606144,-0.033021291832141565,-0.10900443738564021,0.05872408769246664,-0.030373645390205515,-0.07067464495053893,0.028226486246570703,-0.025353007757286248,0.23119778161214766,0.014001471468190349,0.0756913164469472,-0.1058909763766889,0.02813020729071707,-0.15335727092187318
113,7.333333333333333,Exhale,1,0.2458497352878005,-0.061269800583333256,0.08276061268915964,-0.09003535088026575,0.08238930903175797,-0.034415844169247166,-0.111941772532712,0.06438437452422585,-0.037626896765654776,-0.0691573096251494,0.054081176807502365,-0.012754810893406568,0.26362089921205933,0.01596577865866856,0.10103571339602331,-0.10340382878835508,0.04842335660052151,-0.15528049569926328
114,7.666666666666667,Exhale,1,0.26857503251593967,-0.06414509681769326,0.1035698695946022,-0.09527064934539967,0.10794704020607525,-0.03413921936299297,-0.10798992376626872,0.07089354685074464,-0.038769648080789115,-0.06745664790423407,0.08357830886663703,0.0007831524701854049,0.29195151724748697,0.016505227202130327,0.12226362742700049,-0.0976426545775233,0.07000696405043427,-0.15387267039275468
115,8.0,Exhale,1,0.2887456828391512,-0.0674626034901939,0.1225660845631813,-0.09658988715980098,0.1277115798540506,-0.03327410379834297,-0.0997434984592798,0.07895499716385238,-0.03449703886543135,-0.06561293388825577,0.11536487656362968,0.013962580082429312,0.3139052424995074,0.01594538027060809,0.13935751420722223,-0.09088681212798613,0.08862696120534339,-0.15143800048226058
116,8.333333333333334,Exhale,1,0.3052776138262584,-0.07114723766512968,0.14040197141887717,-0.0947520942196125,0.13984359902346577,-0.03269174802771379,-0.08892663757939517,0.08893425135791157,-0.025635996933773955,-0.06354153050717036,0.14805888075413698,0.026494775149848576,0.32901865502343897,0.014820030586175632,0.15331025926636216,-0.08486195655709858,0.10242263008225039,-0.14966576075209104
117,8.666666666666666,Exhale,1,0.31899132721820356,-0.07485868685414339,0.15826342427366022,-0.09150043024026877,0.14630999096553599,-0.03247431374811822,-0.07598184653963005,0.10059473526479186,-0.012544058564478804,-0.061005973434990715,0.1807480591080114,0.03868102439856094,0.33911250936587023,0.013695740949443267,0.16475016137646853,-0.07974783875818672,0.11216030280807648,-0.148193526455361
118,9.0,Exhale,1,0.33219154931005723,-0.07822394799720496,0.17700498323710906,-0.08860191746373319,0.15221380213914304,-0.03190315453568304,-0.06074418633226013,0.1129037372673094,0.004576407630752687,-0.05769428460290684,0.21338906540548142,0.050833655981021374,0.34765923243917735,0.013002376308257034,0.17346804308351457,-0.07442803838034312,0.12029625325482539,-0.14494963393910618
119,9.333333333333334,Exhale,1,0.34734544086394536,-0.08102593578894018,0.19633323978978634,-0.08700648588687969,0.16223637941268085,-0.030193669493415006,-0.04350915763174775,0.12418748309366637,0.02489838622587776,-0.05330422204112909,0.24644719494242487,0.06308152408509472,0.3581954420698745,0.01292864740643161,0.17890801014424887,-0.06785567249043507,0.12917287303655442,-0.13819246641563554
120,9.666666666666666,Exhale,1,0.3656271704050755,-0.08324117474471673,0.21471735602259057,-0.0866330171300407,0.1771487870271287,-0.027313949994139473,-0.025689978733743044,0.13270165937740264,0.04645425278552897,-0.0476173673959481,0.28009114218086634,0.07537288388615393,0.3726243272159957,0.013425701212305888,0.18073797773233832,-0.0601794631036031,0.13946872751495357,-0.12822931498131782
121,10.0,Exhale,1,0.3861402376122712,-0.08495754153363559,0.23006059353642744,-0.08677048217330334,0.1935070402964249,-0.02415076205614262,-0.009707034101502195,0.1374890800241228,0.0663669607503074,-0.04064211958489847,0.31376953628987614,0.08735168612660876,0.3903587831304191,0.014296419380188203,0.17904076979370723,-0.0527253241325196,0.14993798018725385,-0.11734427990388495
122,10.333333333333334,Exhale,1,0.4062301159522619,-0.08630549764043827,0.24064253849772166,-0.0868146289034717,0.20618607424400617,-0.022039670076960265,0.0017056429079905474,0.13900887196532136,0.08171208835128418,-0.03283778698706198,0.3462658065197587,0.0982282899158381,0.4086768059092824,0.01528601783790673,0.17444963020505133,-0.04723296118842411,0.15845194645722596,-0.10849094003512069
123,10.666666666666666,Exhale,1,0.422722434237962,-0.087446817010294,0.24582720639492875,-0.08695448806471982,0.2111951389993842,-0.022130891817398482,0.006408077965340343,0.13878005602807117,0.09047786295802597,-0.025251326306560413,0.37565702604628054,0.10687821156585758,0.42398125801377506,0.016126135544341738,0.1683661927324198,-0.0451440950273076,0.16347308322866977,-0.10403434386994889
124,11.0,Exhale,1,0.4334527027500371,-0.0885717705506821,0.24630410863966795,-0.08827007468052496,0.2070052748048057,-0.024905741727010808,0.0036889997986288762,0.1380687854868505,0.0921870978287809,-0.019335836816337323,0.3991926401574335,0.11215826648215527,0.4334000738625999,0.01657662334221312,0.16280215247365398,-0.047258984740155066,0.16493997565839125,-0.1051143031776526
125,11.333333333333334,Exhale,1,0.4381186225950596,-0.08987553562798936,0.24378066807001803,-0.09203452248273349,0.19442907158320574,-0.029863604328845904,-0.005434731194796163,0.13687912577430503,0.08785530170913057,-0.01642653832945423,0.4136696607431242,0.11343769934664706,0.4360348483331715,0.016524894325136204,0.15943447807570327,-0.0536037813017728,0.16394421554337882,-0.11147475148072847
126,11.666666666666666,Exhale,1,0.43793409943926803,-0.09147976152011188,0.2402505455718292,-0.09880308519637479,0.17611830224412653,-0.03535888882057405,-0.018820677945500765,0.13436835169019687,0.07920853581769305,-0.01716696994928121,0.4164007213610425,0.11128152628120026,0.4332228668142669,0.016115699747695878,0.15837867900184704,-0.06328416386790478,0.16155624961176743,-0.12147324105882047
127,12.0,Exhale,1,0.4346644960851911,-0.09330349331392969,0.23726641880764215,-0.10805849021179802,0.15607776811889856,-0.038819313286250066,-0.034287824426358714,0.13021384043828407,0.06768716126748156,-0.02125908439066285,0.4062980310655811,0.10776297749839361,0.42768157863859224,0.015803689592063998,0.15778712443805826,-0.0744664403882992,0.15783008719153382,-0.13235244821246225
128,12.333333333333334,Exhale,1,0.4294777594467644,-0.09497754310113594,0.23537087838732357,-0.1184809653124072,0.1379695363436495,-0.03770304312258293,-0.05054486140021699,0.12551166031507524,0.05375268255514982,-0.02766640173289237,0.38438978455047346,0.10590060736479132,0.4217973889717914,0.01624895042928302,0.1546388494398673,-0.08494815857607003,0.15134567473408458,-0.14122819626865948
129,12.666666666666666,Exhale,1,0.42171632185930785,-0.09587528492616952,0.23368713861053084,-0.12842138279678275,0.12195053736793426,-0.031025541644412995,-0.067624351216114,0.12248419374184748,0.03676186729028566,-0.035097821532572335,0.35334155578197285,0.10841864974184112,0.4158237764462871,0.018080456227893157,0.14624269084301192,-0.0932804352571582,0.13925918722264027,-0.1467149171488109
130,13.0,Exhale,1,0.40889786501442954,-0.09531314179601102,0.23033151291426082,-0.13635925614594815,0.10351322454651604,-0.02034589627705446,-0.08640664234054153,0.12329242916888772,0.015849254891870113,-0.04248507697642794,0.31641303679772187,0.11644387693855456,0.4074070333505915,0.021622097941093033,0.13157822786774948,-0.09944756745001822,0.11832414256797927,-0.14981169559980273
131,13.333333333333334,Exhale,1,0.388708717130414,-0.09293345563481918,0.22388675918661002,-0.14124542568505474,0.07741189214268603,-0.009065717566752176,-0.10739537526075107,0.12869713321687629,-0.008511993660913993,-0.049239496265536295,0.2766710058020971,0.12869935612202046,0.39302487489890536,0.0266717773952526,0.11123897775592198,-0.10427606962590155,0.08658633900581697,-0.15274885396330534
132,13.666666666666666,Exhale,1,0.3611717185440251,-0.08905906262698036,0.2147071982161832,-0.14258968204579384,0.04352589084261562,-0.000441278658549905,-0.12976756021818608,0.13742663889146223,-0.03365940886890169,-0.05522855030947421,0.23668647331404363,0.1417163897564323,0.3702106064416906,0.03240845766522985,0.08614402924562413,-0.10823493330482829,0.044584209261422675,-0.156782968827248
133,14.0,Exhale,1,0.32916645653830057,-0.08471855373572054,0.20499058996367983,-0.14043396162852317,0.008432345992064801,0.003933082015377072,-0.15113885368060695,0.14664666203225027,-0.05527627501504835,-0.06055643474609166,0.1984449030765565,0.1512939830696995,0.33919723261836443,0.03750905391400169,0.05713666020485464,-0.11101683327607641,-0.004207333746695247,-0.16131860509511892
134,14.333333333333334,Exhale,1,0.2973501356834749,-0.08130023432931557,0.19779867417249655,-0.1354346248137951,-0.018756670302005157,0.004151182173953211,-0.167819893413768,0.15305741355996036,-0.06881034697221018,-0.06529888849970887,0.1632785220857814,0.15450140816101063,0.303322700396266,0.040512898981697514,0.02612887511986729,-0.1121835539325437,-0.05350139881251777,-0.16497985991743028
135,14.666666666666666,Exhale,1,0.2703923944587715,-0.08007159038571013,0.19568195713790673,-0.12890261065871214,-0.03186186808386474,0.001164263393385289,-0.175623592765649,0.15392564333240408,-0.07099345778146524,-0.06933572076739851,0.1318583523161624,0.1508743906125961,0.2681229292065212,0.04032637644197478,-0.0030160833938285662,-0.11193182690926906,-0.09523990769530385,-0.16705616228518488
136,15.0,Exhale,1,0.2516611644575481,-0.08182248423741037,0.19965625679135016,-0.12252805388705147,-0.029935799998843403,-0.0038990013696258035,-0.17114653719896533,0.1477730882988204,-0.06076621249149034,-0.07238284635096554,0.10433972338670479,0.14220621884814685,0.2397096622333632,0.03663290217983111,-0.02517463993443346,-0.11118249735465933,-0.12160331700118611,-0.1679276221049867
137,15.333333333333334,Exhale,1,0.24275838274217454,-0.08669658552197405,0.20907784730943643,-0.11784348084610712,-0.016172638932454454,-0.00999724809491122,-0.1530066478898642,0.1345951436926973,-0.03943456777218022,-0.07422141180043024,0.08061518560811769,0.13154771404789442,0.22320849323791758,0.03001248340247842,-0.03588883800816958,-0.11103974763867001,-0.12740634384751748,-0.16851112852987593
138,15.666666666666666,Exhale,1,0.2434431582711835,-0.09411601228245194,0.22237845020401473,-0.11579156998473208,0.004343324290757478,-0.01625242286166114,-0.122460056603319,0.11553130981763743,-0.010237515258935327,-0.07496190263240925,0.060658933237837276,0.1221178014243419,0.22172923584837945,0.02174138502897841,-0.03323855501964163,-0.11212567367020897,-0.11186898260180259,-0.16949288438261112
139,16.0,Exhale,1,0.25197615217950486,-0.10279198790507205,0.2381685006870193,-0.1166398150743782,0.0266998818117151,-0.022005601383235963,-0.08309256637683266,0.09237865956086509,0.02270256766682574,-0.07512266919837467,0.0450490465807868,0.11627094876234577,0.2361133347786328,0.013388715910860565,-0.018335570805400603,-0.11423492464976875,-0.07871735759797407,-0.1709600850088126
140,16.333333333333332,Exhale,1,0.26605051651028944,-0.11098775466056086,0.2559493574821982,-0.12006138419195707,0.04764019774035567,-0.02685757355470305,-0.0398933236878117,0.06753716163178612,0.05577666820347449,-0.07543934381419432,0.03545137344961591,0.11467797134440451,0.2652761287603404,0.00637733888773182,0.005703238322449135,-0.11647263797322717,-0.03455429824860171,-0.17258126361417156
141,16.666666666666668,Exhale,1,0.28382139770494236,-0.1171031578970521,0.2759777875128021,-0.1251687810593395,0.06620934347242848,-0.030648849263013995,0.0018360093695444575,0.04423530580094956,0.08691888593904958,-0.07650950735589386,0.03456176583462456,0.11615814165362882,0.30668353940940707,0.0016427422941932906,0.03537569949983417,-0.11774048361817782,0.013578250895674554,-0.1740401982422275
142,17.0,Exhale,1,0.3044581567587423,-0.12030946646319983,0.29860910072830327,-0.1306426165802216,0.0835139122954195,-0.03338323701928869,0.03770182735545518,0.02623716827925661,0.11582744109460022,-0.07845843222951644,0.045181720535129456,0.11848188569714349,0.3567249773520688,-0.0005327940359380671,0.0680104003458105,-0.11726390052528936,0.06038062852753152,-0.1752608807381626
143,17.333333333333332,Exhale,1,0.3279548115299887,-0.12084622853841523,0.32372743043963637,-0.13514936575049816,0.1017169050123921,-0.0351628129132971,0.06550894488557267,0.016706342547549168,0.14345175775914143,-0.08079211514434799,0.06870940689928551,0.11984124468700066,0.4110002823139824,-0.0004819912455697566,0.10209056725154307,-0.11491017441439394,0.10341157608638818,-0.17626482904207594
144,17.666666666666668,Exhale,1,0.3544140706261718,-0.11985515604841104,0.3505845359945319,-0.13787915363196732,0.12258372154092115,-0.03620254609936397,0.08611328337292756,0.016835956746881073,0.1711420846893261,-0.08252534497499656,0.10410159133599456,0.11989987576592608,0.4647013038501413,0.0010556244394915768,0.1369013682885102,-0.11123836874489913,0.14277457592032686,-0.176982061613437
145,18.0,Exhale,1,0.38334474397655555,-0.11887916855018581,0.3779608673611727,-0.13874054334197122,0.14619647420056825,-0.036900549421053454,0.10308125957346667,0.02522700182093749,0.19986228033261264,-0.08254061319898162,0.14819965071778626,0.11947674533528688,0.5132997106419653,0.0032273229776909307,0.1719238549905656,-0.10729600468613243,0.17956501042183393,-0.17731698750761118
146,18.333333333333332,Exhale,1,0.4133939405727188,-0.11924834283777054,0.4043969811584147,-0.1380153701606783,0.17075993059875252,-0.037783459287543515,0.12100006329636753,0.03846581227839762,0.22974444818603093,-0.08000352434143959,0.19699397782273473,0.11923848625842871,0.5535393122725601,0.00534900486425579,0.20619834113486124,-0.10410769845772852,0.21409216958555777,-0.17718693566514127
147,18.666666666666668,Exhale,1,0.4426962975112386,-0.12162167313757846,0.42846057927707276,-0.13588631554330816,0.19412113116598254,-0.03916331891641948,0.1435229519777366,0.05230694530874574,0.26017033687058316,-0.07464694665398845,0.2465952858804296,0.11871180852068804,0.5843675793797675,0.007079186899618491,0.2379253642317999,-0.10195354119299105,0.2453148517982217,-0.1761075826195568
148,19.0,Exhale,1,0.46961807414615137,-0.12586169105259887,0.44909768331081873,-0.13231295557749229,0.2157653312448032,-0.04077600867636034,0.17235961278859313,0.0625916989016585,0.2902332481444171,-0.06685289908209047,0.29327573943532126,0.11645596391972997,0.6071621325155654,0.008422878415742208,0.2647639761659082,-0.10002760023609249,0.27180138836172674,-0.17283032708271143
149,19.333333333333332,Exhale,1,0.49338000314521174,-0.13124373575408083,0.46594140579016396,-0.12722352017405428,0.23670380507327538,-0.041994721380088126,0.20710956624199894,0.06595344601479299,0.31912390976594335,-0.05757651425350814,0.3330377275349112,0.11114722808927827,0.6248433487771973,0.009583471999301242,0.285064049902911,-0.0970838964068733,0.293062877616705,-0.16605966119332427
150,19.666666666666668,Exhale,1,0.5142352026408382,-0.13689562015358853,0.4794266802675608,-0.1207660737405394,0.25721821845870474,-0.04256716125781286,0.24522432708062372,0.060821911321398824,0.34614084873955253,-0.048171841151856146,0.3617182140177241,0.10273377334646532,0.6402208525284516,0.010751447531732617,0.29919163369084656,-0.0926276144363534,0.3101135355623619,-0.15587360671127495
151,20.0,Exhale,1,0.533136041549359,-0.1422279090368785,0.49061228988642996,-0.11348704341877741,0.27575714407091934,-0.042956035659381595,0.28229125490600404,0.0483175437016761,0.3704409319968826,-0.04012997285984981,0.3762320997188311,0.0928929089982721,0.6545725162670201,0.011944003137268289,0.30940529912284115,-0.08742245860525445,0.3249521298188884,-0.14413144223418206
152,-5.0,Inhale,2,-0.02653820493053091,0.016214286837973765,0.07103967198633536,0.03807733900699626,0.05719815150351008,-0.007839113461958936,0.011239481479257617,0.035484114003242424,0.04937995549777314,0.03680043226352187,0.02894343932197094,-0.026243011828221727,0.01863837149666542,0.005524753356889402,0.03722218191646367,0.03565300194780294,0.03777021506441022,0.04275797327372615
153,-4.666666666666667,Inhale,2,0.017532562592878092,0.0098515966783904,0.0683902786527832,0.03647789571903579,0.09207772037367193,-0.010712135107754244,0.03992495936426409,0.03661872220529326,0.06959896638123557,0.03127767833040924,0.06447905123711352,-0.015180916417694295,0.04603278562967437,0.005259148121026089,0.06335264149597547,0.03695426184352723,0.07850455611174009,0.04666655163556067
154,-4.333333333333333,Inhale,2,0.05217745265108906,0.0036253389962071386,0.061260989405096146,0.032826226686049786,0.1164319661723365,-0.014148671869068603,0.06117509671196437,0.036129359409463824,0.08091757051106933,0.025506978069527213,0.09197575640260004,-0.0030420387820270073,0.06242457811644348,0.004651473628770744,0.08082286828713361,0.035622458000265235,0.10372460844130969,0.04829364188184107
155,-4.0,Inhale,2,0.07476732547284982,-0.0019024942535085087,0.05216755688797812,0.027557207632917982,0.12501176830748342,-0.018463770337158132,0.07467438222204466,0.03252530149368438,0.08394862037447672,0.0196804107418819,0.10961271360507317,0.008027505514220191,0.06823310371693628,0.0039234362211470015,0.09046698124832624,0.03080562394852834,0.11335661837675143,0.045570721519838375
156,-3.6666666666666665,Inhale,2,0.08386523190651497,-0.00599945957537484,0.0428548794578206,0.021169046971343572,0.1167290266740782,-0.023171395640075906,0.08013922976968954,0.0251643651005124,0.07973936203492943,0.013833501639412148,0.11601982376733785,0.01650106260841649,0.0654085195083952,0.0032540906409911333,0.09340438166945743,0.02276874597914278,0.1101108035370772,0.03769339267549926
157,-3.3333333333333335,Inhale,2,0.07977716458646945,-0.008050073138283842,0.03394266447814322,0.014098940129766964,0.0947470437647616,-0.026917492895917154,0.077575502385868,0.014544603714224155,0.06946562600566902,0.007926252289207365,0.11072374928594622,0.021582659535565454,0.05701158544372017,0.0027368178712986607,0.09050745190534971,0.01275005831444149,0.09830911036614681,0.025455876352222795
158,-3.0,Inhale,2,0.06489317983118359,-0.007848817384427971,0.02512280063087098,0.006703283178633277,0.06443156664112286,-0.02796559437742162,0.06776395525367238,0.0019946265123046364,0.05430072202478345,0.0019732747177406028,0.09446106043808836,0.023146957000480264,0.04632144824832918,0.0023487896879898977,0.0821078993178634,0.00247963699736541,0.08211664468518014,0.010868740998181105
159,-2.6666666666666665,Inhale,2,0.04321833926935572,-0.0056845191542880735,0.015553519721310796,-0.000758780914050508,0.03182675448166777,-0.024677060333550802,0.052372298883956246,-0.01092346611528268,0.03531858095122882,-0.0038451334820487648,0.069201114603938,0.021597910901714135,0.03559828688604255,0.0019318106320677256,0.0676002692606082,-0.006149133720933866,0.0639882207565392,-0.0032677194933415947
160,-2.3333333333333335,Inhale,2,0.018725611595193592,-0.002256069387138264,0.004050830364011701,-0.008029328789550205,0.0022119140288511326,-0.016063328585068946,0.03321337552829075,-0.022775198075341205,0.0131884448067599,-0.009187276057363688,0.037687900722756136,0.017650157895861805,0.024877342896091625,0.0012290113231201408,0.045394074338282304,-0.011531871364576502,0.04379383003285251,-0.014071732665880502
161,-2.0,Inhale,2,-0.006135631160712293,0.001494337877047247,-0.010540813773167517,-0.014700789824287928,-0.02237949428100585,-0.0026698067875121044,0.011389278498782114,-0.032192493536811605,-0.011724012374999704,-0.013663663431843004,0.002596888922903936,0.012129711033252912,0.01184938927547725,1.3453050707015599e-05,0.014379463894757881,-0.013249509349337737,0.019353793279880776,-0.02004172836317026
162,-1.6666666666666667,Inhale,2,-0.030103424116097715,0.004566657566121727,-0.02833380696296585,-0.02026576678567943,-0.04474203445263386,0.012817647931101546,-0.012696407756080637,-0.037702886283770505,-0.038392253699038405,-0.0169644990347659,-0.03412477298484721,0.005832742315119246,-0.006507302026561796,-0.0017536030661886694,-0.023851446166167075,-0.012768756260650754,-0.011697237410045911,-0.022361755453723823
163,-1.3333333333333333,Inhale,2,-0.05185883759474855,0.006045166691587597,-0.047556854642417296,-0.02430314029336171,-0.0701278452466039,0.026374876911575727,-0.038896163107414686,-0.03784189716740461,-0.06441839571913387,-0.01894274649588728,-0.07128470795080454,-0.0007221833650330046,-0.03158766031388373,-0.003844510680001471,-0.06485419454895773,-0.012895294743349913,-0.05039822953436631,-0.024311230653964597
164,-1.0,Inhale,2,-0.06958953422133782,0.005208997515560347,-0.06477219221892141,-0.02662107327701543,-0.10073696506778777,0.03472150852232679,-0.06715464707962154,-0.031694745895253534,-0.08664742374495522,-0.019649366459608967,-0.1078995019461492,-0.007600220476429542,-0.06166168158227773,-0.005800630525683122,-0.10360902146513978,-0.016117051853879558,-0.09614058718402345,-0.028874179863056976
165,-0.6666666666666666,Inhale,2,-0.08136669546911295,0.0016711811517253958,-0.07591965402480803,-0.027402709567153138,-0.13255650385686005,0.0368839017078404,-0.09746409466344116,-0.01961164916275513,-0.10273233852170652,-0.01932412849773163,-0.14253273520751275,-0.015352240818740566,-0.0919088538732459,-0.0070431045038812,-0.13642134087787727,-0.023341112996198978,-0.14675974081432122,-0.03693516325349802
166,-0.3333333333333333,Inhale,2,-0.08593147550677908,-0.0044582583544948515,-0.07779714950314345,-0.027325771435327263,-0.15813621113524604,0.033970167096167736,-0.1297320500456612,-0.0034951443402103585,-0.11268332917207438,-0.01833777213540603,-0.17303478557035634,-0.024334869449274547,-0.11603202689531075,-0.007025111647815449,-0.16097327626151586,-0.03401198026407042,-0.1986870854661767,-0.04763002875724201
167,0.0,Inhale,2,-0.08343306490621509,-0.012477872067097278,-0.06946272045892658,-0.02750257843831796,-0.17198685790734602,0.02786026722647425,-0.16352419744557045,0.013776388138104575,-0.11926009535601727,-0.01708394245704506,-0.19682499464805794,-0.03399322566720978,-0.12869788652649558,-0.005405824110437904,-0.1755489340145602,-0.046969076478075716,-0.24734552024295448,-0.05981335983299151
168,0.3333333333333333,Inhale,2,-0.07524372821364873,-0.021195261917318277,-0.052571297591682845,-0.029201489811804586,-0.17323534378130545,0.02017826827012571,-0.1977026052408954,0.029523772783713317,-0.12652174570398095,-0.015852338800768202,-0.2115667157188891,-0.042703027827630226,-0.1274072487348592,-0.0022023131056825877,-0.1787805327269353,-0.06094876558880543,-0.2878133599382814,-0.07286912632435144
169,0.6666666666666666,Inhale,2,-0.06298872047700735,-0.029286051518192205,-0.03034557938828335,-0.033422050983496855,-0.16438859517615842,0.012078869284948283,-0.2302577418916709,0.04222589268129556,-0.13740947875521192,-0.014750412902429334,-0.21600013116768796,-0.048276652546750794,-0.11292804303087824,0.0021614501998795674,-0.17033657668841892,-0.07450980575689885,-0.31584055698143765,-0.08636362562606895
170,1.0,Inhale,2,-0.0476752072491847,-0.035796370423672695,-0.005964924207230557,-0.04048132451695662,-0.14846193970924831,0.004534852817460626,-0.2584701941374077,0.05170842973916666,-0.1520081729045053,-0.013719268090526565,-0.21039751314827188,-0.04889567154822048,-0.08834284804781807,0.006961097863885471,-0.15176534477616752,-0.08589857630620731,-0.32896877591550194,-0.09928050870614426
171,1.3333333333333333,Inhale,2,-0.02945428260580217,-0.04049491848712739,0.01855220934354458,-0.04975771277974317,-0.12718574476666142,-0.001475855995200779,-0.2794663276039439,0.05874112486989159,-0.16756869847106068,-0.012620363052372885,-0.19623143503862137,-0.043953914806021545,-0.05752277204124996,0.011387400254826943,-0.12655091619604422,-0.09333486470601833,-0.3273193527530596,-0.10984959081855322
172,1.6666666666666667,Inhale,2,-0.00834721543848037,-0.043836362875056656,0.042317164482964166,-0.059685116952199066,-0.1016891378946048,-0.005217502281887577,-0.29135359875002487,0.06450326363025215,-0.1803005780132649,-0.01133187807930332,-0.17538505518247946,-0.03427693001350658,-0.024175600226291394,0.014769319031606314,-0.09923949075241033,-0.09570877514626144,-0.3138276448513209,-0.11634799049942603
173,2.0,Inhale,2,0.014645965377536908,-0.04660046216238748,0.06483583171440342,-0.06816549358673368,-0.07425713398890829,-0.006612054618993177,-0.29429093389709665,0.07016355046201135,-0.18755382938871418,-0.00981454275391379,-0.14953036462154778,-0.021678733149626903,0.008247517373620231,0.016733626222084522,-0.07389509380333421,-0.09322162755792761,-0.29353449554151645,-0.11827121527681615
174,2.3333333333333335,Inhale,2,0.03737126260567614,-0.04947575839674749,0.08564508861984597,-0.0734007920518676,-0.048699402814590995,-0.0063354298127389725,-0.2903390851306534,0.07667272278853014,-0.1886965807038485,-0.00811388103299846,-0.12003323256241312,-0.00814076978603493,0.03657813540904792,0.017273074765546296,-0.05266717977235701,-0.08746045334709586,-0.27195088809160367,-0.11686338997030754
175,2.6666666666666665,Inhale,2,0.05754191292888761,-0.05279326506924811,0.10464130358842508,-0.0747200298662689,-0.028934863166615636,-0.005470314248088978,-0.28209265982366444,0.08473417310163787,-0.18442397148849074,-0.006270167017020164,-0.08824666486542047,0.005038657826208976,0.05853186066106834,0.01671322783402406,-0.0355732929921353,-0.08070461089755868,-0.2533308909366946,-0.11442872005981344
176,3.0,Inhale,2,0.07407384391599485,-0.05647789924418391,0.12247719044412093,-0.07288223692608042,-0.016802843997200487,-0.004887958477459803,-0.2712757989437798,0.09471342729569707,-0.17556292955683334,-0.004198763635934751,-0.055552660674913185,0.017570852893628242,0.07364527318499992,0.015587878149591599,-0.021620547932995348,-0.07467975532667111,-0.23953522205978758,-0.11265648032964391
177,3.3333333333333335,Inhale,2,0.08778755730794,-0.06018934843319761,0.140338643298904,-0.0696305729467367,-0.01033645205513027,-0.004670524197864228,-0.25833100790401464,0.10637391120257736,-0.1624709911875382,-0.001663206563755099,-0.02286348232103876,0.029757102142340605,0.08373912752743116,0.01446358851285923,-0.01018064582288899,-0.06956563752775927,-0.2297975493339615,-0.11118424603291384
178,3.6666666666666665,Inhale,2,0.10098777939979366,-0.06355460957625919,0.15908020226235284,-0.06673206017020111,-0.004432640881523204,-0.004099364985429057,-0.24309334769664473,0.1186829132050949,-0.14535052499230672,0.0016484822683287756,0.00977752397643128,0.041909733724801036,0.09228585060073828,0.013770223871673,-0.0014627641158429544,-0.06424583714991565,-0.22166159888721257,-0.10794035351665904
179,4.0,Inhale,2,0.11614167095368177,-0.06635659736799442,0.17840845881503012,-0.06513662859334761,0.005589936392014622,-0.0023898799431610156,-0.22585831899613237,0.12996665903145185,-0.12502854639718164,0.006038544830106528,0.04283565351337473,0.054157601828874385,0.10282206023143547,0.013696494969847574,0.00397720294489135,-0.05767347126000762,-0.21278497910548355,-0.1011831859931884
180,4.333333333333333,Inhale,2,0.13442340049481188,-0.06857183632377097,0.19679257504783437,-0.06476315983650861,0.020502344006462423,0.0004898395561145173,-0.20803914009812766,0.13848083531518812,-0.10347267983753042,0.011725399475287515,0.07647960075181616,0.06644896162993359,0.11725094537755666,0.014193548775721852,0.005807170532980789,-0.04999726187317564,-0.2024891246270844,-0.09122003455887068
181,4.666666666666667,Inhale,2,0.15493646770200756,-0.07028820311268981,0.21213581256167122,-0.06490062487977126,0.03686059727575864,0.0036530274941113682,-0.19205619546588681,0.14326825596190831,-0.083559971872752,0.018700647286337153,0.11015799486082602,0.07842776387038843,0.1349854012919801,0.015064266943604167,0.004109962594349711,-0.04254312290209215,-0.19201987195478412,-0.08033499948143781
182,5.0,Inhale,2,0.17502634604199827,-0.0716361592194925,0.22271775752296544,-0.06494477160993962,0.049539631223339924,0.005764119473293727,-0.18064351845639406,0.14478804790310687,-0.06821484427177521,0.026504979884173635,0.14265426509070858,0.08930436765961776,0.15330342407084335,0.016053865401322694,-0.0004811769943061714,-0.03705075995799665,-0.183505905684812,-0.07148165961267355
183,5.333333333333333,Inhale,2,0.19151866432769843,-0.07277747858934822,0.22790242542017253,-0.06508463077118774,0.05454869597871793,0.00567289773285551,-0.1759410833990443,0.14455923196585668,-0.05944906966503342,0.03409144056467521,0.17204548461723038,0.09795428930963725,0.168607876175336,0.016893983107757703,-0.006564614466937741,-0.034961893796880146,-0.1784847689133682,-0.06702506344750175
184,5.666666666666667,Inhale,2,0.2022489328397735,-0.07390243212973634,0.22837932766491173,-0.06640021738699288,0.050358831784139454,0.0028980478232431823,-0.17866016156575573,0.14384796142463602,-0.057739834794278494,0.0400069300548983,0.19558109872838336,0.10323434422593493,0.17802669202416083,0.017344470905629083,-0.012128654725703516,-0.03707678350972761,-0.17701787648364672,-0.06810502275520545
185,6.0,Inhale,2,0.20691485268479606,-0.07520619720704359,0.22585588709526183,-0.07016466518920142,0.03778262856253948,-0.0020598147785919146,-0.1877838925591808,0.1426583017120905,-0.06207163091392884,0.04291622854178139,0.21005811931407412,0.10451377709042672,0.18066146649473247,0.017292741888552166,-0.015496329123654251,-0.04342158007134534,-0.17801363659865915,-0.07446547105828133
186,6.333333333333333,Inhale,2,0.20673032952900447,-0.0768104230991661,0.222325764597073,-0.07693322790284271,0.019471859223460283,-0.007555099270320059,-0.2011698393098854,0.14014752762798235,-0.07071839680536636,0.04217579692195441,0.21278917993199237,0.10235760402497993,0.17784948497582792,0.016883547311111843,-0.01655212819751046,-0.05310196263747733,-0.18040160253027054,-0.08446396063637333
187,6.666666666666667,Inhale,2,0.20346072617492747,-0.07863415489298392,0.21934163783288596,-0.08618863291826594,-0.0005686749017676789,-0.011015523735996074,-0.21663698579074336,0.1359930163760696,-0.08223977135557785,0.03808368248057277,0.20268648963653094,0.09883905524217328,0.17230819680015322,0.016571537155479963,-0.01714368276129926,-0.06428423915787174,-0.18412776495050415,-0.09534316779001512
188,7.0,Inhale,2,0.19827398953650086,-0.08030820468019018,0.21744609741256735,-0.09661110801887514,-0.018676906677016752,-0.009899253572328936,-0.2328940227646016,0.13129083625286075,-0.09617425006790957,0.03167636513834325,0.1807782431214233,0.09697668510857098,0.16642400713335234,0.01701679799269899,-0.020291957759490224,-0.07476595734564256,-0.1906121774079534,-0.10421891584621235
189,7.333333333333333,Inhale,2,0.19051255194904432,-0.08120594650522374,0.21576235763577462,-0.10655152550325069,-0.03469590565273197,-0.003221752094159003,-0.2499735125804986,0.12826336967963298,-0.11316506533277375,0.024244945338663282,0.14973001435292269,0.09949472748562078,0.16045039460784807,0.01884830379130912,-0.028688116356345612,-0.08309823402673074,-0.2026986649193977,-0.10970563672636378
190,7.666666666666667,Inhale,2,0.17769409510416598,-0.08064380337506526,0.2124067319395046,-0.11448939885241609,-0.053133218474150194,0.007457893273199527,-0.2687558037049262,0.1290716051066732,-0.13407767773118928,0.016857689894807678,0.11280149536867175,0.10751995468233422,0.15203365151215245,0.02238994550450899,-0.04335257933160803,-0.08926536621959076,-0.2236337095740587,-0.1128024151773556
191,8.0,Inhale,2,0.1575049472201504,-0.0782641172138734,0.2059619782118538,-0.11937556839152262,-0.07923455087798022,0.018738071983501817,-0.2897445366251357,0.1344763091546618,-0.15843892628397338,0.010103270605699325,0.07305946437304696,0.11977543386580011,0.13765149306046628,0.027439624958668567,-0.06369182944343553,-0.0940938683954741,-0.255371513136221,-0.1157395735408582
192,8.333333333333334,Inhale,2,0.12996794863376143,-0.0743897242060346,0.19678241724142698,-0.12071982475226174,-0.11312055217805063,0.027362510891704085,-0.3121167215825707,0.1432058148292477,-0.1835863414919611,0.004114216561761405,0.033074931884993476,0.13279246750021195,0.1148372246032516,0.033176305228645814,-0.0887867779537334,-0.09805273207440084,-0.29737364288061524,-0.11977368840480083
193,8.666666666666666,Inhale,2,0.097962686628037,-0.07004921531477477,0.18706580898892364,-0.1185641043349911,-0.14821409702860147,0.03173687156563106,-0.3334880150449916,0.15242583797003578,-0.20520320763810773,-0.001213667874856047,-0.005166638352493654,0.14237006081347914,0.08382385077992537,0.03827690147741765,-0.11779414699450287,-0.10083463204564895,-0.3461651858887332,-0.12430932467267179
194,9.0,Inhale,2,0.06614636577321137,-0.0666308959083698,0.17987389319774033,-0.113564767520263,-0.1754031133226714,0.0319549717242072,-0.35016905477815263,0.15883658949774587,-0.21873727959526956,-0.0059561216284732535,-0.040333019343268765,0.14557748590479028,0.047949318557826956,0.04128074654511348,-0.14880193207949025,-0.10200135270211624,-0.39545925095455575,-0.1279705794949831
195,9.333333333333334,Inhale,2,0.03918862454850792,-0.06540225196476435,0.1777571761631505,-0.10703275336518009,-0.18850831110453098,0.02896805294363928,-0.35797275413003365,0.1597048192701896,-0.22092039040452463,-0.00999295389616288,-0.07175318911288775,0.14195046835637576,0.012749547368082138,0.04109422400539074,-0.17794689059318608,-0.10174962567884159,-0.4371977598373418,-0.13004688186273772
196,9.666666666666666,Inhale,2,0.0204573945472845,-0.0671531458164646,0.18173147581659393,-0.10065819659351939,-0.18658224301950965,0.02390478818062819,-0.35349569856334995,0.1535522642366059,-0.21069314511454973,-0.013040079479729919,-0.09927181804234536,0.1332822965919265,-0.015663719605075857,0.03740074974324708,-0.20010544713379097,-0.10100029612423188,-0.4635611691432241,-0.13091834168253957
197,10.0,Inhale,2,0.011554612831910982,-0.07202724710102827,0.1911530663346802,-0.09597362355257504,-0.17281908195312068,0.017806541455342773,-0.33535580925424885,0.14037431963048277,-0.1893615003952396,-0.014878644929194617,-0.12299635582093246,0.12262379179167406,-0.03216488860052147,0.030780330965894387,-0.2108196452075271,-0.10085754640824254,-0.4693641959895554,-0.13150184810742876
198,10.333333333333334,Inhale,2,0.012239388360919931,-0.07944667386150617,0.2044536692292585,-0.0939217126912,-0.15230311872990876,0.01155136668859285,-0.30480921796770366,0.12131048575542293,-0.16016444788199471,-0.015619135761173627,-0.1429526081912129,0.11319387916812157,-0.03364414599005961,0.022509232592394377,-0.20816936221899915,-0.10194347243978151,-0.45382683474384056,-0.13248360396016395
199,10.666666666666666,Inhale,2,0.020772382269241312,-0.08812264948412628,0.2202437197122631,-0.09476995778084614,-0.12994656120895115,0.005798188167018026,-0.26544172774121727,0.09815783549865059,-0.12722436495623365,-0.015779902327139047,-0.15856249484826335,0.10734702650612543,-0.019260047059806246,0.014156563474276528,-0.19326637800475813,-0.1040527234193413,-0.42067520974001205,-0.13395080458636546
200,11.0,Inhale,2,0.03484674660002583,-0.0963184162396151,0.23802457650744202,-0.098191526898425,-0.10900624528031058,0.0009462159955509392,-0.22224248505219632,0.07331633756957162,-0.0941502644195849,-0.01609657694295869,-0.16816016797943426,0.10575404908818417,0.009902746921901344,0.007145186451147784,-0.16922756887690837,-0.10629043674279973,-0.3765121503906397,-0.13557198319172442
201,11.333333333333334,Inhale,2,0.05261762779467881,-0.10243381947610632,0.25805300653804586,-0.10329892376580745,-0.09043709954823775,-0.0028450597127600004,-0.18051315199484017,0.05001448173873506,-0.06300804668400982,-0.017166740484658237,-0.1690497755944256,0.10723421939740849,0.051310157570968025,0.0024105898576092543,-0.13955510769952334,-0.10755828238775035,-0.3283796012463634,-0.13703091781978036
202,11.666666666666666,Inhale,2,0.07325438684847872,-0.10564012804225405,0.2806843197535471,-0.10877275928668956,-0.07313253072524674,-0.005579447469034701,-0.14464733400892946,0.03201634421704211,-0.034099491528459175,-0.01911566535828083,-0.1584298208939207,0.10955796344092315,0.10135159551362972,0.0002350535274778967,-0.10692040685354702,-0.10708169929486192,-0.2815772236145065,-0.13825160031571548
203,12.0,Inhale,2,0.0967510416197251,-0.10617689011746943,0.3058026494648801,-0.11327950845696609,-0.054929538008274145,-0.007359023363043107,-0.11684021647881196,0.02248551848533467,-0.006475174863917973,-0.021449348273112373,-0.13490213452976466,0.11091732243078033,0.15562690047554334,0.0002858563178462072,-0.07284023994781444,-0.1047279731839665,-0.23854627605564976,-0.1392555486196288
204,12.333333333333334,Inhale,2,0.12321030071590826,-0.10518581762746528,0.3326597550197757,-0.11600929633843524,-0.0340627214797451,-0.008398756549109978,-0.09623587799145707,0.022615132684666577,0.021215152066266705,-0.023182578103760943,-0.09950995009305559,0.11097595350970574,0.20932792201170222,0.0018234720029075406,-0.038029438910847306,-0.10105616751447166,-0.1991832762217111,-0.13997278119098983
205,12.666666666666666,Inhale,2,0.15214097406629196,-0.10420983012924004,0.36003608638641643,-0.11687068604843917,-0.010449968820097995,-0.009096759870799461,-0.07926790179091797,0.031006177758722994,0.049935347709553254,-0.02319784632774599,-0.05541189071126388,0.11055282307906655,0.2579263288035263,0.003995170541106895,-0.003006952208791927,-0.09711380345570497,-0.16239284172020405,-0.14030770708516405
206,13.0,Inhale,2,0.18219017066245521,-0.10457900441682477,0.38647220018365847,-0.11614551286714624,0.01411348757808627,-0.009979669737289526,-0.06134909806801709,0.044244988216183126,0.07981751556297155,-0.02066075747020397,-0.006617563606315398,0.11031456400220838,0.298165930434121,0.006116852427671755,0.031267533935503744,-0.09392549722730105,-0.1278656825564802,-0.14017765524269415
207,13.333333333333334,Inhale,2,0.21149252760097503,-0.1069523347166327,0.41053579830231657,-0.1140164582497761,0.03747468814531627,-0.011359529366165487,-0.038826209386648027,0.05808612124653124,0.11024340424752373,-0.01530417978275283,0.04298374445137946,0.10978788626446771,0.32899419754132836,0.007847034463034456,0.06299455703244239,-0.09177133996256358,-0.09664300034381629,-0.1390983021971097
208,13.666666666666666,Inhale,2,0.23841430423588775,-0.1111923526316531,0.4311729023360625,-0.11044309828396022,0.05911888822413694,-0.012972219126106348,-0.009989548575791478,0.068370874839444,0.14030631552135775,-0.007510132210854845,0.0896641980062711,0.10753204166350963,0.35178875067712634,0.009190725979158171,0.0898331689665507,-0.08984539900566502,-0.0701564637803112,-0.1358210466602643
209,14.0,Inhale,2,0.26217623323494815,-0.11657439733313504,0.44801662481540777,-0.10535366288052218,0.08005736205260912,-0.014190931829834138,0.024760404877614318,0.0717326219525785,0.16919697714288398,0.0017662526177274816,0.12942618610586104,0.10222330583305793,0.3694699669387581,0.010351319562717207,0.11013324270355354,-0.08690169517644583,-0.048894974525332986,-0.12905038077087713
210,14.333333333333334,Inhale,2,0.2830314327305747,-0.12222628173264274,0.4615018992928045,-0.09889621644700732,0.10057177543803847,-0.014763371707558872,0.06287516571623906,0.06660108725918433,0.19621391611649316,0.011170925719379473,0.15810667258867392,0.09380985109024498,0.38484747069001257,0.01151929509514858,0.12426082649148902,-0.08244541320592595,-0.03184431657967606,-0.11886432628882782
211,14.666666666666666,Inhale,2,0.3019322716390955,-0.12755857061593273,0.47268750891167366,-0.09161718612524535,0.11911070105025313,-0.015152246109127611,0.09994209354161941,0.054096719639461596,0.22051399937382327,0.019212794011385807,0.17262055828978096,0.08396898674205176,0.3991991344285809,0.012711850700684252,0.13447449192348368,-0.077240257374827,-0.01700572232314959,-0.10712216181173491
212,15.0,Inhale,2,0.31975566505977343,-0.13238659468691633,0.4827097996696114,-0.08443430592007581,0.1337232192136722,-0.016046260299415253,0.130977596048176,0.037731565351655366,0.24097125307583508,0.024602697631720953,0.1726702202167162,0.07557466902996501,0.4120078957164447,0.013747705111379044,0.14322249110202875,-0.0727533790655607,-0.0026563059582415593,-0.09635844780321495
213,15.333333333333334,Inhale,2,0.33645499063051115,-0.1367150154940372,0.49203422873395697,-0.07833679660808744,0.14328680419276968,-0.01778731252976626,0.15231336639119808,0.021717612857990867,0.2563878421984438,0.026569390949683067,0.1612928625694495,0.07148914397385253,0.4218552755675658,0.014329158248947739,0.15169074806443247,-0.0703738453477185,0.011556631055084974,-0.08853442588613457
214,15.666666666666666,Inhale,2,0.3507089104820155,-0.14048291912865837,0.4999319622483779,-0.07399215389780113,0.14664836741322307,-0.02038721516225811,0.16264892664986025,0.008988885625081716,0.2658731381412847,0.02500970759280682,0.14351712586892773,0.07323897003184472,0.42742821776257756,0.014099064672240692,0.15993209779753695,-0.07106398827537783,0.024630021549710855,-0.08468163146858038
215,16.0,Inhale,2,0.360351722403958,-0.143518590956669,0.5044875307763149,-0.07142403322403344,0.14170787705626128,-0.023760407018558177,0.16267569928993317,0.00019980318978791794,0.26899687941328754,0.02043490006274391,0.12426020765122245,0.08011437540573618,0.42773933042441326,0.012634251696928419,0.16773748112049908,-0.07522681525344119,0.035244806554686016,-0.08500515094972877
216,16.333333333333332,Inhale,2,0.363506521340079,-0.145662048778185,0.5032528531880125,-0.06983452580634267,0.12683468396082492,-0.027544180255403655,0.15424963424801535,-0.0058732427502201055,0.26574696997239994,0.013794635775611188,0.1071491571564303,0.08928657688809877,0.4220073261694817,0.009537077523321578,0.17485040049008393,-0.08244110397713808,0.04287169271460253,-0.08875174736601156
217,16.666666666666668,Inhale,2,0.3597913207525223,-0.1468629341237921,0.4943786705717738,-0.06782738262828682,0.10362412450494021,-0.030629173137682493,0.14000180989779137,-0.010949067690546998,0.2565431605756345,0.006265554339422382,0.0947453673763317,0.09713778122364775,0.4099678158133752,0.004730494973244467,0.18033727732868615,-0.09121909458570716,0.0480158438742049,-0.09394054676720996
218,17.0,Inhale,2,0.35021970404772124,-0.14713269917075641,0.4773921914839597,-0.06416109191125512,0.07750202319514718,-0.03112175896990897,0.1229053576791358,-0.015804442024573942,0.24205206424239065,-0.0009512916619390064,0.08900022543181327,0.10111060144726258,0.39199291272078907,-0.0012524244065016973,0.18194348964861318,-0.09927704960265847,0.05120211114577645,-0.0976611070394625
219,17.333333333333332,Inhale,2,0.3355903061509459,-0.14641663297785282,0.45298812016479656,-0.05859349988514616,0.05420346329197457,-0.027281478801976865,0.10549169688668224,-0.019753432048849967,0.22279463301539407,-0.0068097069589667086,0.09075269365469815,0.10090996908643936,0.36829692562579397,-0.007311608551337777,0.17675365040510682,-0.10460241206354437,0.05163052384002945,-0.09747930585442771
220,17.666666666666668,Inhale,2,0.3155005179970444,-0.14457584140684732,0.42248188396409436,-0.05216737159001928,0.03466576127536452,-0.019044558101145383,0.0896052802982545,-0.02135306458183263,0.1993581824139983,-0.010585092603868888,0.09888425353615202,0.09819587434434458,0.338229626569641,-0.012203062112553151,0.16341501015674872,-0.1067864495926575,0.04713143437972147,-0.09329170239739493
221,18.0,Inhale,2,0.28920556107113304,-0.1415458285792757,0.3876999639928539,-0.04665805843094739,0.013738188304213108,-0.008675242562943095,0.07685473653375685,-0.01965718235401562,0.17326277049637193,-0.012014916018458978,0.11037780075451721,0.09498991456830252,0.3007194143066584,-0.015050672564134698,0.143491455512947,-0.10736731321551524,0.035280953096456485,-0.08772916530846689
222,18.333333333333332,Inhale,2,0.2568663559731917,-0.1375115541165824,0.35108462745511354,-0.04355538890431969,-0.014932310387667647,0.0005044259759465606,0.0686656907566522,-0.014960302377103647,0.14737849655045612,-0.011345024938366711,0.12117005269237799,0.09225404302893843,0.2553346801338018,-0.015625850207613503,0.11986156003125767,-0.10860279298516656,0.014234914331847287,-0.08420816443973246
223,18.666666666666668,Inhale,2,0.21995049571465614,-0.1329434118955227,0.3156269384090974,-0.043349847848058114,-0.052477139970177375,0.0062365985450353635,0.06561118540272219,-0.008542201601588341,0.12536822505770528,-0.00924475310512709,0.1270569881415444,0.08990205532130226,0.20306821902659,-0.014314593718617766,0.0941200230041943,-0.11181596370586644,-0.016918859207957243,-0.08449168681496164
224,19.0,Inhale,2,0.18097455320489264,-0.128524179301814,0.2845129523498692,-0.04546468026107024,-0.09358479434159402,0.008241707340402674,0.06686552556954074,-0.001873328581311047,0.11056728348749852,-0.006641526859097623,0.12455701657669732,0.08782813244670627,0.1465932305404522,-0.011905276126615329,0.0661253928600405,-0.11689932803983187,-0.057715232773630665,-0.08821973330141634
225,19.333333333333332,Inhale,2,0.14295873370635673,-0.1250476151249109,0.2604761063663656,-0.04853556476063122,-0.1308378467817863,0.00748605158567686,0.07054775336289008,0.0038427949520061216,0.10491257348733508,-0.004538632098591635,0.11187389605353665,0.08652600881954033,0.09008880397019935,-0.009347314396574376,0.035769276988950834,-0.12307090763208109,-0.10585795393495072,-0.09433661300543827
226,19.666666666666668,Inhale,2,0.10883883671920139,-0.12327350394509617,0.24516008215887727,-0.0508318099247083,-0.15935056299004094,0.00503769672178561,0.07488778393617461,0.007480942377887517,0.10844099414138704,-0.0038237522505547633,0.08972470188188601,0.08663973574256056,0.038704476465589825,-0.007527985218793355,0.004728610937853888,-0.12974623349775072,-0.15718769024306767,-0.10243926786285885
227,20.0,Inhale,2,0.0808755538854004,-0.12371652730092299,0.23875256929149313,-0.05090869229915615,-0.17826221594804248,0.0015269478272822315,0.07936627724178615,0.007715009646653565,0.11948919045595204,-0.005052313166021391,0.06155567748551287,0.08809399623601784,-0.002465340434283409,-0.007056907253556897,-0.023394830131243657,-0.13675326248449265,-0.20621132140236356,-0.11284355806509797
228,-5.0,Exhale,3,-0.13279033553064273,0.031887899502474656,-0.15800647646262272,0.03098030370587314,-0.12752391294657708,0.019477456390870323,0.04474811709881597,-0.06417036546237291,0.013952792621645824,-0.015875755824511097,-0.1558256699382081,-0.057243254778107655,-0.16613355872379423,-0.014922358905591864,-0.1215790426664008,0.007957810605024054,-0.034509298339786956,0.02571213556654669
229,-4.666666666666667,Exhale,3,-0.12053532779400133,0.023797109901600725,-0.13578075825922323,0.026759742534180873,-0.11867716434143005,0.011378057405692898,0.012192980448040475,-0.05146824556479068,0.003065059570414827,-0.014773829926172226,-0.16025908538700698,-0.06281687949722821,-0.15165435301981325,-0.010558595600029709,-0.11313508662788441,-0.0056032295630693675,-0.0625364953829433,0.012217636264829173
230,-4.333333333333333,Exhale,3,-0.10522181456617868,0.017286790996120235,-0.11140010307817043,0.019700469000721105,-0.10275050887451996,0.0038340409382052413,-0.01601947179769629,-0.04198570850691958,-0.011533634578878554,-0.013742685114269458,-0.1546564673675909,-0.0634358984986979,-0.12706915803675312,-0.005758947936023803,-0.09456385471563299,-0.016992000112377826,-0.07566471431700754,-0.0006992468152461276
231,-4.0,Exhale,3,-0.08700088992279614,0.012588242932665542,-0.08688296952739528,0.01042408073793455,-0.08147431393193308,-0.0021766678744561635,-0.03701560526423255,-0.03495301337619465,-0.027094160145433917,-0.012643780076115777,-0.14049038925794036,-0.058494141756498974,-0.096249082030185,-0.0013326455450823308,-0.0693494261355097,-0.02442828851218884,-0.07401529115456526,-0.011268328927655103
232,-3.6666666666666665,Exhale,3,-0.06589382275547435,0.009246798544736277,-0.06311801438797571,0.0004966765654786501,-0.05597770705987645,-0.005918314161142961,-0.048902876410313476,-0.029190874615834098,-0.039826039687638155,-0.011355295103046214,-0.11964400940179847,-0.048817156963984004,-0.06290191021522643,0.002049273231697039,-0.04203800069187581,-0.026802198952431962,-0.060523583252826516,-0.0177667286085279
233,-3.3333333333333335,Exhale,3,-0.04290064193945708,0.00648269925740545,-0.040599347156536444,-0.007983700069055947,-0.028545703154179928,-0.007312866498248561,-0.05184021155738526,-0.023530587784074887,-0.04707929106308741,-0.009837959777656682,-0.09378931884086679,-0.03621896010010433,-0.0304787926153148,0.00401358042217525,-0.016693603742799695,-0.02431505136409813,-0.04023043394302207,-0.019689953385918026
234,-3.0,Exhale,3,-0.020175344711317846,0.0036074030230454435,-0.019790090251093895,-0.013218998534189872,-0.002987971979862643,-0.007036241691994357,-0.047888362790941975,-0.017021415457556102,-0.04822204237822176,-0.008137298056741352,-0.06429218678173212,-0.022680996736512356,-0.0021481745798871163,0.00455302896563702,0.0045343102881774955,-0.018553877153266365,-0.01864682649310931,-0.018282128079409418
235,-2.6666666666666665,Exhale,3,-4.6943881063679165e-06,0.00028989635054481474,-0.0007938752825147868,-0.014538236348591171,0.016776567668112717,-0.0061711261273443615,-0.03964193748395306,-0.008959965144448355,-0.04394943316286399,-0.006293584040763057,-0.032505619084739486,-0.009501569124268448,0.019805550672133306,0.003993182034114782,0.021628197068399215,-0.011798034703729185,-2.682933820019763e-05,-0.01584745816891532
236,-2.3333333333333335,Exhale,3,0.01652723659900087,-0.0033947378243909727,0.017042011573181068,-0.012700443408402706,0.028908586837527867,-0.005588770356715187,-0.028825076604068436,0.0010192890496108257,-0.03508839123120659,-0.004222180659677645,0.0001883851057678081,0.003030625943150817,0.034918963196064884,0.002867832349682322,0.035580942127539164,-0.005773179132841632,0.013768839538706808,-0.014075218438745783
237,-2.0,Exhale,3,0.03024094999094601,-0.007106187013404681,0.03490346442796412,-0.009448779429058977,0.03537497877959808,-0.005371336077119613,-0.01588028556430331,0.012679772956491116,-0.021996452861911445,-0.0016866235874979918,0.03287756345964223,0.01521687519186318,0.04501281753849613,0.0017435427129499563,0.04702084423764552,-0.0006590613339297816,0.023506512264532906,-0.012602984142015713
238,-1.6666666666666667,Exhale,3,0.04344117208279968,-0.010471448156466254,0.05364502339141298,-0.006550266652523389,0.04127878995320515,-0.004800176864684441,-0.0006426253569333882,0.02498877495900866,-0.004875986666679951,0.0016250652445858826,0.06551856975711226,0.027369506774323614,0.05355954061180325,0.001050178071763724,0.05573872594469155,0.004660739043913828,0.0316424627112818,-0.009359091625760907
239,-1.3333333333333333,Exhale,3,0.05859506363668779,-0.013273435948201483,0.07297327994409025,-0.004954835075669884,0.05130136722674298,-0.0030906918224163997,0.016592403343578983,0.036272520785365636,0.01544599192844512,0.006015127806363635,0.09857669929405573,0.039617374878396956,0.06409575024250044,0.0009764491699382994,0.06117869300542586,0.011233104933821864,0.040519082493010845,-0.002601924102290274
240,-1.0,Exhale,3,0.07687679317781791,-0.015488674903978036,0.09135739617689449,-0.004581366318830895,0.06621377484119077,-0.00021097232314086698,0.034411582241583694,0.044786697069101884,0.03700185848809633,0.011701982451544623,0.13222064653249715,0.05190873467945616,0.07852463538862163,0.0014735029758125764,0.0630086605935153,0.01890931432065385,0.05081493697140997,0.007361227332027444
241,-0.6666666666666666,Exhale,3,0.09738986038501356,-0.01720504169289689,0.10670063369073135,-0.004718831362093535,0.08257202811048699,0.002952215614855984,0.05039452687382454,0.04957411771582205,0.05691456645287476,0.01867723026259426,0.165899040641507,0.063887536919911,0.09625909130304507,0.0023442211436948924,0.06131145265488422,0.026363453291737338,0.06128418964371026,0.01824626240946032
242,-0.3333333333333333,Exhale,3,0.11747973872500427,-0.018552997799699565,0.11728257865202557,-0.004762978092261913,0.09525106205806827,0.005063307594038342,0.061807203883317285,0.051093909657020625,0.07225969405385153,0.026481562860430744,0.19839531087138956,0.07476414070914034,0.11457711408190832,0.00333381960141342,0.05672031306622833,0.03185581623583283,0.0697981559136824,0.02709960227822458
243,0.0,Exhale,3,0.13397205701070444,-0.01969431716955528,0.12246724654923265,-0.004902837253510028,0.10026012681344629,0.004972085853600126,0.06650963894066708,0.05086509371977043,0.08102546866059335,0.034068023540932316,0.22778653039791139,0.08341406235915982,0.12988156618640095,0.004173937307848427,0.05063687559359677,0.03394468239694933,0.07481929268512617,0.03155619844339637
244,0.3333333333333333,Exhale,3,0.1447023255227795,-0.020819270709943393,0.12294414879397186,-0.006218423869315157,0.09607026261886781,0.0021972359439877977,0.06379056077395562,0.05015382317854975,0.08273470353134826,0.0399835130311554,0.25132214450906437,0.0886941172754575,0.1393003820352258,0.004624425105719809,0.045072835334830995,0.031829792684101875,0.07628618511484767,0.03047623913569266
245,0.6666666666666666,Exhale,3,0.14936824536780208,-0.02212303578725066,0.12042070822432195,-0.00998287167152369,0.08349405939726783,-0.0027606266578472987,0.05466682978053058,0.04896416346600428,0.07840290741169792,0.0428928115180385,0.26579916509475515,0.0899735501399493,0.14193515650579744,0.004572696088642894,0.04170516093688026,0.025484996122484144,0.07529042499983524,0.024115790832616786
246,1.0,Exhale,3,0.14918372221201048,-0.02372726167937317,0.11689058572613314,-0.016751434385164986,0.06518329005818864,-0.008255911149575444,0.04128088302982597,0.04645338938189614,0.06975614152026041,0.042152379898211516,0.2685302257126734,0.0878173770745025,0.13912317498689286,0.004163501511202567,0.04064936186302405,0.01580461355635215,0.07290245906822385,0.014117301254524785
247,1.3333333333333333,Exhale,3,0.14591411885793348,-0.025550993473190994,0.11390645896194608,-0.026006839400588212,0.045142755932960674,-0.011716335615251459,0.025813736548968028,0.04229887812998332,0.058234766970048917,0.038060265456829875,0.2584275354172119,0.08429882829169585,0.1335818868112182,0.0038514913555706878,0.04005780729923525,0.004622337035957748,0.06917629664799023,0.003238094100883003
248,1.6666666666666667,Exhale,3,0.14072738221950687,-0.02722504326039725,0.11201091854162747,-0.03642931450119741,0.0270345241577116,-0.010600065451584319,0.009556699575109753,0.037596698006774516,0.04430028825771718,0.03165294811460036,0.2365192889021043,0.08243645815809356,0.1276976971444173,0.004296752192789711,0.03690953230104428,-0.0058593811518130885,0.062691884190541,-0.005637653955314217
249,2.0,Exhale,3,0.13296594463205033,-0.02812278508543081,0.11032717876483475,-0.04636973198557296,0.01101552518199638,-0.003922563973414388,-0.0075227902407872605,0.034569231433546725,0.02730947299285302,0.02422152831492039,0.2054710601336037,0.08495450053514336,0.12172408461891306,0.006128257991399845,0.028513373704188896,-0.014191657832901263,0.05060539667909668,-0.011124374835465647
250,2.3333333333333335,Exhale,3,0.12014748778717198,-0.02756064195527233,0.10697155306856473,-0.05430760533473837,-0.007421787639421844,0.006757081393944144,-0.026305081365214797,0.03537746686058697,0.006396860594437475,0.016834272871064784,0.16854254114935274,0.0929797277318568,0.1133073415232174,0.00966989970459972,0.013848910728926482,-0.020358790025761284,0.02967035202443569,-0.014221153286457467
251,2.6666666666666665,Exhale,3,0.0999583399031564,-0.025180955794080466,0.10052679934091394,-0.05919377487384492,-0.03352312004325186,0.01803726010424643,-0.04729381428542433,0.040782170908575555,-0.01796438795834663,0.010079853581956432,0.12880051015372795,0.1052352069153227,0.09892518307153124,0.01471957915875929,-0.0064903393829010185,-0.025187292201644607,-0.0020674515377266073,-0.017158311649960074
252,3.0,Exhale,3,0.07242134131676746,-0.021306562786241656,0.0913472383704871,-0.060538031234584046,-0.06740912134332228,0.026661699012448702,-0.06966599924285934,0.04951167658316148,-0.04311180316633433,0.004090799538018512,0.08881597766567448,0.11825224054973453,0.07611091461431657,0.020456259428736537,-0.03158528789319888,-0.029146155880571355,-0.044069581282120907,-0.02119242651390271
253,3.3333333333333335,Exhale,3,0.04041607931104302,-0.016966053894981844,0.08163063011798376,-0.05838231081731337,-0.10250266619387309,0.031036059686375676,-0.0910372927052802,0.05873169972394953,-0.06472866931248099,-0.00123708489859894,0.05057440742818734,0.12782983386300173,0.045097540790990334,0.025556855677508376,-0.06059265693396838,-0.03192805585181947,-0.09286112429023884,-0.025728062781773663
254,3.6666666666666665,Exhale,3,0.008599758456217379,-0.013547734488576867,0.07443871432680048,-0.05338297400258528,-0.12969168248794305,0.03125415984495182,-0.10771833243844124,0.06514245125165961,-0.07826274126964282,-0.005979538652216147,0.015408026437412225,0.13103725895431284,0.009223008568891923,0.028560700745204205,-0.09160044201895572,-0.033094776508286766,-0.14215518935606136,-0.029389317604085002
255,4.0,Exhale,3,-0.018357982768486065,-0.012319090544971418,0.07232199729221063,-0.046850959847502364,-0.14279688026980264,0.028267241064383896,-0.11552203179032226,0.06601068102410333,-0.08044585207889787,-0.010016370919905773,-0.016012143332206758,0.12741024140589832,-0.025976762620852894,0.02837417820548147,-0.12074540053265156,-0.03284304948501211,-0.18389369823884744,-0.03146561997183961
256,4.333333333333333,Exhale,3,-0.03708921276970949,-0.014069984396671665,0.07629629694565408,-0.04047640307584168,-0.14087081218478129,0.023203976301372803,-0.11104497622363858,0.05985812599051968,-0.07021860678892299,-0.013063496503472813,-0.04353077226166437,0.11874206964144908,-0.05439002959401089,0.024680703943337802,-0.14290395707325645,-0.0320937199304024,-0.21025710754472968,-0.03233707979164145
257,4.666666666666667,Exhale,3,-0.045991994485083,-0.01894408568123534,0.08571788746374033,-0.03579183003489731,-0.12710765111839234,0.017105729576087386,-0.09290508691453747,0.046680181384396544,-0.04888696206961286,-0.01490206195293751,-0.06725531004025147,0.10808356484119665,-0.0708911985894565,0.01806028516598511,-0.1536181551469926,-0.031950970214413066,-0.21606013439106106,-0.032920586216530656
258,5.0,Exhale,3,-0.04530721895607405,-0.026363512441713224,0.09901849035831864,-0.03373991917352228,-0.1065916878951804,0.010850554809337465,-0.06235849562799227,0.027616347509336683,-0.019689909556367968,-0.01564255278491652,-0.08721156241053188,0.09865365221764415,-0.07237045597899464,0.0097891867924851,-0.15096787215846463,-0.03303689624595203,-0.20052277314534617,-0.03390234206926585
259,5.333333333333333,Exhale,3,-0.03677422504775267,-0.03503948806433334,0.11480854084132319,-0.034588164263168415,-0.0842351303742228,0.0050973762877626425,-0.022991005401505914,0.004463697252564352,0.013250173369393102,-0.01580331935088194,-0.10282144906758235,0.09280679955564801,-0.05798635704874128,0.0014365176743672537,-0.1360648879442236,-0.03514614722551182,-0.16737114814151766,-0.035369542695467326
260,5.666666666666667,Exhale,3,-0.022699860716968154,-0.043235254819822155,0.13258939763650215,-0.03800973338074728,-0.06329481444558223,0.0002454041162955549,0.02020823728751504,-0.02037780067651462,0.04632427390604185,-0.016119993966701586,-0.11241912219875325,0.09121382213770675,-0.028823563067033688,-0.005574859348761491,-0.11202607881637387,-0.03738386054897023,-0.12320808879214529,-0.036990721300826285
261,6.0,Exhale,3,-0.004928979522315169,-0.04935065805631339,0.152617827667106,-0.043117130248129715,-0.04472566871350941,-0.0035458715920153846,0.0619375703448712,-0.04367965650735119,0.07746649164161694,-0.01719015750840113,-0.1133087298137446,0.09269399244693106,0.012583847582032988,-0.01030945594230002,-0.08235361763898882,-0.03865170619392087,-0.07507553964786903,-0.03844965592888222
262,6.333333333333333,Exhale,3,0.01570777953148475,-0.052556966622461114,0.17524914088260718,-0.048590965769011826,-0.027421099890518382,-0.006280259348290086,0.09780338833078192,-0.06167779402904412,0.1063750467971676,-0.01913908238202372,-0.1026887751132397,0.09501773649044573,0.0626252855246947,-0.012484992272431378,-0.04971891679301251,-0.03817512310103242,-0.028273162016012068,-0.03967033842481734
263,6.666666666666667,Exhale,3,0.039204434302731114,-0.05309372869767651,0.20036747059394028,-0.05309771493928837,-0.009218107173545789,-0.00805983524229849,0.12561050586089942,-0.07120861976075157,0.1339993634617088,-0.021472765296855267,-0.07916108874908365,0.0963770954803029,0.1169005904866083,-0.012434189482063068,-0.015638749887279937,-0.035821396990137,0.014757785542844602,-0.040674286728730684
264,7.0,Exhale,3,0.06566369339891427,-0.05210265620767234,0.22722457614883582,-0.05582750282075751,0.011648709354983253,-0.009099568428365363,0.1462148443482543,-0.07107900556141968,0.16168969039189346,-0.023205995127503834,-0.0437689043123746,0.09643572655922832,0.1706016120227672,-0.010896573797001733,0.0191720511496872,-0.032149591320642185,0.054120785376783276,-0.0413915193000917
265,7.333333333333333,Exhale,3,0.09459436674929798,-0.0511266687094471,0.2546009075154766,-0.056688892530761446,0.03526146201463036,-0.009797571750054846,0.1631828205487934,-0.06268796048736325,0.19040988603518,-0.023221263351488882,0.00032915506941711174,0.09601259612858913,0.21920001881459125,-0.00872487525880238,0.05419453785174258,-0.02820722726187549,0.09091121987829033,-0.04172644519426592
266,7.666666666666667,Exhale,3,0.12464356334546121,-0.05149584299703184,0.2810370213127186,-0.05596371934946851,0.05982491841281463,-0.010680481616544911,0.18110162427169427,-0.04944915002990312,0.2202920538885983,-0.020684174493946862,0.049123482174365594,0.09577433705173095,0.259439620445186,-0.00660319337223752,0.08846902399603825,-0.02501892103347157,0.12543837904201416,-0.04159639335179601
267,8.0,Exhale,3,0.15394592028398105,-0.05386917329683977,0.3051006194313767,-0.05383466473209838,0.08318611898004463,-0.012060341245420872,0.20362451295306333,-0.03560801699955501,0.25071794257315044,-0.015327596806495725,0.09872479023206045,0.09524765931399029,0.29026788755239336,-0.00487301133687482,0.12019604709297689,-0.0228647637687341,0.1566610612546781,-0.04051704030621157
268,8.333333333333334,Exhale,3,0.18086769691889376,-0.05810919121186017,0.32573772346512264,-0.05026130476628249,0.10483031905886529,-0.01367303100536173,0.23246117376391986,-0.025323263406642243,0.2807808538469845,-0.0075335492345977376,0.14540524378695208,0.09299181471303221,0.31306244068819133,-0.003529319820751103,0.14703465902708523,-0.020938822811835546,0.18314759781818318,-0.037239784769366166
269,8.666666666666666,Exhale,3,0.20462962591795422,-0.0634912359133421,0.3425814459444679,-0.04517186936284445,0.12576879288733747,-0.014891743709089522,0.26721112721732565,-0.02196151629350775,0.30967151546851074,0.0017428355939845888,0.18516723188654202,0.0876830788825805,0.3307436569498231,-0.0023687262371920688,0.16733473276408806,-0.01799511898261635,0.2044090870731614,-0.030469118879979
270,9.0,Exhale,3,0.22548482541358067,-0.0691431203128498,0.35606672042186466,-0.0387144229293296,0.14628320627276684,-0.015464183586814256,0.3053258880559504,-0.02709305098690191,0.33668845444211987,0.01114750869563658,0.21384771836935493,0.07926962413976756,0.34612116070107757,-0.0012007507047606936,0.18146231655202355,-0.013538837012096459,0.22145974501881832,-0.020283064397929696
271,9.333333333333334,Exhale,3,0.24438566432210146,-0.0744754091961398,0.3672523300407338,-0.03143539260756761,0.16482213188498146,-0.015853057988382994,0.34239281588133075,-0.03959741860662464,0.36098853769945,0.019189376987642916,0.22836160407046197,0.06942875979157434,0.36047282443964584,-8.195099225021227e-06,0.1916759819840182,-0.00833368118099751,0.2362983392753448,-0.008540899920836781
272,9.666666666666666,Exhale,3,0.2622090577427794,-0.0793034332671234,0.3772746207986716,-0.024252512402398084,0.17943465004840056,-0.016747072178670636,0.37342831838788737,-0.05596257289443088,0.38144579140146184,0.02457928060797806,0.22841126599739722,0.061034442079487584,0.3732815857275097,0.00102765931146977,0.2004239811625633,-0.003846802871731228,0.2506477556402528,0.0022228140876831763
273,10.0,Exhale,3,0.2789083833135172,-0.08363185407424428,0.38659904986301713,-0.018155003090409707,0.18899823502749805,-0.018488124409021645,0.39476408873090946,-0.07197652538809537,0.3968623805240705,0.026545973925940172,0.2170339083501305,0.05694891702337511,0.3831289655786308,0.0016091124490384646,0.208892238124967,-0.0014672691538890176,0.2648606926535793,0.01004683600476356
274,10.333333333333334,Exhale,3,0.29316230316502156,-0.08739975770886543,0.394496783377438,-0.013810360380123404,0.19235979824795144,-0.021088027041513493,0.4050996489895716,-0.08470525262100452,0.4063476764669115,0.02498629056906393,0.1992581716496087,0.05869874308136729,0.38870190777364255,0.001379018872331418,0.2171335878580715,-0.0021574120815483415,0.2779340831482052,0.013899630422317757
275,10.666666666666666,Exhale,3,0.30280511508696406,-0.09043542953687608,0.3990523519053751,-0.011242239706355723,0.18741930789098965,-0.024461218897813563,0.4051264216296446,-0.09349433505629832,0.4094714177389143,0.02041148303900102,0.18000125343190343,0.06557414845525875,0.3890130204354783,-8.579410298085498e-05,0.2249389711810336,-0.0063202390596117,0.2885488681531804,0.013576110941169355
276,11.0,Exhale,3,0.30595991402308503,-0.09257888735839209,0.3978176743170726,-0.009652732288664938,0.1725461147955533,-0.028244992134659037,0.3967003565877267,-0.09956738099630634,0.4062215082980267,0.013771218751868293,0.1628902029371113,0.07474634993762135,0.3832810161805467,-0.0031829682765876968,0.23205189055061845,-0.013534527783308591,0.2961757543130969,0.009829514524886564
277,11.333333333333334,Exhale,3,0.3022447134355283,-0.09377977270399916,0.3889434917008339,-0.007645589110609102,0.14933555533966858,-0.03132998501693787,0.38245253223750275,-0.10464320593663323,0.3970176989012612,0.0062421373156794895,0.15048641315701267,0.08259755427317031,0.3712415058244402,-0.00798955082666481,0.23753876738922067,-0.02231251839187768,0.3013199054726993,0.004640715123688152
278,11.666666666666666,Exhale,3,0.29267309673072733,-0.09404953775096346,0.3719570126130199,-0.00397929839357739,0.12321345402987553,-0.03182257084916435,0.3653560800188472,-0.10949858027066019,0.3825266025680174,-0.0009747086856818992,0.14474127121249428,0.08657037449678516,0.3532666027318541,-0.013972470206410972,0.2391449797091477,-0.030370473408828983,0.3045061727442709,0.0009201548514356198
279,12.0,Exhale,3,0.2780436988339519,-0.09333347155805989,0.34755294129385667,0.001588293632531566,0.09991489412670293,-0.027982290681232248,0.34794241922639363,-0.11344757029493621,0.3632691713410208,-0.006833123982709601,0.14649373943537913,0.08636974213596194,0.32957061563685897,-0.02003165435124705,0.23395514046564134,-0.03569583586971489,0.3049345854385238,0.0011019560364704177
280,12.333333333333334,Exhale,3,0.25795391068005047,-0.09149267998705436,0.31704670509315447,0.008014421927658444,0.08037719211009287,-0.019745369980400766,0.33205600263796586,-0.11504720282791887,0.33983272073962506,-0.01060850962761178,0.15462529931683303,0.08365564739386715,0.299503316580706,-0.024923107912462425,0.22061650021728327,-0.037879873398828014,0.30043549597821584,0.005289559493503198
281,12.666666666666666,Exhale,3,0.23165895375413909,-0.08846266715948278,0.282264785121914,0.013523735086730335,0.059449619138941465,-0.009376054442198477,0.31930545887346823,-0.11335132060010186,0.31373730882199863,-0.01203833304220187,0.1661188465351982,0.0804496876178251,0.2619931043177234,-0.027770718364043972,0.20069294557348152,-0.03846073702168575,0.28858501469495085,0.010852096582431227
282,13.0,Exhale,3,0.19931974865619773,-0.08442839269678946,0.24564944858417367,0.016626404613358032,0.030779120447060708,-0.0001963859033088237,0.31111641309636356,-0.1086544406231899,0.2878530348760829,-0.011368441962109604,0.17691109847305897,0.077713816078461,0.2166083701448668,-0.02834589600752278,0.17706305009179218,-0.03969621679133708,0.26753897593034165,0.014373097451165667
283,13.333333333333334,Exhale,3,0.16240388839766215,-0.07986025047572975,0.2101917595381575,0.016831945669619618,-0.006765709135449024,0.00553578666577998,0.3080619077424335,-0.10223633984767458,0.265842763383332,-0.009268170128869983,0.1827980339222254,0.07536182837082483,0.16434190903765497,-0.027034639518527043,0.1513215130647288,-0.042909387512036955,0.23638520239053715,0.014089575075936493
284,13.666666666666666,Exhale,3,0.12342794588789865,-0.07544101788202107,0.17907777347892934,0.014717113256607486,-0.047873363506865656,0.007540895461147289,0.3093162479092521,-0.0955674668273973,0.25104182181312523,-0.006664943882840516,0.1802980623573783,0.07328790549622885,0.10786692055151718,-0.024625321926524606,0.12332688292057502,-0.04799275184600239,0.19558882882486373,0.01036152858948178
285,14.0,Exhale,3,0.08541212638936273,-0.07196445370511798,0.15504092749542572,0.0116462287570465,-0.08512641594705794,0.006785239706421476,0.3129984757026014,-0.08985134329408012,0.24538711181296186,-0.004562049122334527,0.16761494183421763,0.0719857818690629,0.05136249398126431,-0.022067360196483653,0.09297076704948534,-0.05416433143825161,0.14744610766354366,0.0042446488854598575
286,14.333333333333334,Exhale,3,0.0512922294022074,-0.07019034252530325,0.13972490328793744,0.009349983592969426,-0.11363913215531259,0.004336884842530225,0.317338506275886,-0.08621319586819873,0.2489155324670138,-0.003847169274297656,0.145465747662567,0.07209950879208313,-2.1833523345210714e-05,-0.02024803101870263,0.061930100998388395,-0.06083965730392123,0.09611637135542671,-0.0038580059719607305
287,14.666666666666666,Exhale,3,0.02332894656840641,-0.07063336588113005,0.13331739042055327,0.009273101218521571,-0.1325507851133141,0.0008261359480268472,0.3218169995814975,-0.08597912859943267,0.25996372878157875,-0.005075730189764284,0.11729672326619386,0.07355376928554042,-0.04119165042321844,-0.019776953053466172,0.03380665992929085,-0.06784668629066316,0.047092740196130814,-0.014262296174199838
288,15.0,Exhale,3,0.0026042286006720925,-0.07335945929409092,0.13445013194020464,0.011869599570405587,-0.14380619949551304,-0.0034488334725079673,0.3275275300921635,-0.09041048171777336,0.2759100821981803,-0.0082656872657512,0.08854280755026765,0.07522369200184538,-0.06845730677325465,-0.020821973810177186,0.012945526411333192,-0.07509949509219911,0.0064552159432464265,-0.027161809992345992
289,15.333333333333334,Exhale,3,-0.011114103352518542,-0.07785999014589076,0.14045977979674193,0.01637951391435174,-0.14998780695342873,-0.008189211670498336,0.33658916349591267,-0.09996671993753763,0.2941486455367905,-0.012820470106289932,0.0649903263961434,0.07536318202268397,-0.08052636127300317,-0.023088939360933224,0.0029417221136450985,-0.08220324865519188,-0.019943986125813162,-0.04183552780551451
290,15.666666666666666,Exhale,3,-0.019230469311212816,-0.08299772539703468,0.14810778005097508,0.021286895272678453,-0.15276078745892088,-0.012902131427520796,0.3507937089851828,-0.11369239453616838,0.3127699115751977,-0.01769116010707257,0.050823979561358326,0.07234434934697523,-0.07866313694684891,-0.025960767714426052,0.0054328979351335955,-0.08835253841158495,-0.027683019553053512,-0.056511480078447716
291,16.0,Exhale,3,-0.023938058134121438,-0.08710895753791928,0.15460986848773853,0.024984265629037994,-0.15254599983715544,-0.016983813566494844,0.3702284913261537,-0.1291999297366581,0.33069532062702056,-0.021751540846989572,0.04726406921440993,0.06533516587204205,-0.06605342752317196,-0.02870881846349767,0.019680239006538567,-0.09259203106302155,-0.015056752244684023,-0.06890303752553828
292,16.333333333333332,Exhale,3,-0.027350631517118956,-0.08845509884259627,0.1585391744277938,0.026158416312528365,-0.14898396224595767,-0.01997730937683172,0.3929119703961401,-0.1433548720501413,0.3474832892409139,-0.02420208737198526,0.052454443500554365,0.054807617202028126,-0.04667458396666318,-0.030685764710891426,0.04315549417996208,-0.09420293032915367,0.016465164101865156,-0.07701320831759814
293,16.666666666666668,Exhale,3,-0.03039320619872105,-0.08597413256967464,0.16012293815594622,0.023932020761247813,-0.14144051262872723,-0.021773800812233818,0.4157890486961584,-0.15339365010440129,0.363127350714693,-0.024791399450172738,0.06265448091675992,0.04264999897768858,-0.024037233097781843,-0.03145329692940418,0.07269175577713527,-0.0929293621577139,0.06294402519152,-0.07973622985908004
294,17.0,Exhale,3,-0.03211663632591183,-0.07988958850446526,0.1608926474353729,0.017952693754952485,-0.12914928388576946,-0.022594963247468184,0.4364480318316115,-0.15790455021025415,0.3780417836962837,-0.023775086845127566,0.07422309345967458,0.03155540215946752,-0.00015887320193263893,-0.030832950527270784,0.10554870021049614,-0.08899272895726855,0.11933383474781625,-0.0770560600960245
295,17.333333333333332,Exhale,3,-0.029952995707889462,-0.07173349460477486,0.16301286267633006,0.008458387981866437,-0.1111207572164193,-0.022765815305894742,0.45449009444153016,-0.15723043248259955,0.39313923484681323,-0.02169353968241061,0.08541085032240396,0.023852687297955342,0.0248487342864705,-0.028895571523150965,0.13989035985641007,-0.08297644361834425,0.18069847109389112,-0.06989470845219174
296,17.666666666666668,Exhale,3,-0.020896742431025277,-0.06378025481974255,0.16852118628835247,-0.00368393886226282,-0.08624143455939061,-0.02242886993112106,0.4717455481864263,-0.1531993971733473,0.40971250400452464,-0.019100511510863814,0.0969424213907051,0.0205851650164877,0.05235479080465814,-0.025915180485306676,0.17456111161925794,-0.07560785217549262,0.24282916626350512,-0.05971532474907053
297,18.0,Exhale,3,-0.003003505273559365,-0.05828347079105992,0.17862757217847838,-0.017001736937592823,-0.05405840461228031,-0.02143177207205018,0.49114249135452154,-0.14819798793045366,0.4289738569165683,-0.01633212590668084,0.11114851088833683,0.021417309098549366,0.08409062288749186,-0.022309297403879564,0.20857519384274104,-0.06752682548838984,0.30233338341134613,-0.04808815259012341
298,18.333333333333332,Exhale,3,0.023524834584663198,-0.056871997627972015,0.19337975578197575,-0.029663754131998996,-0.01640979966560148,-0.019548936111498112,0.5147781966928563,-0.14385747842959393,0.45140481710350433,-0.01336442746894792,0.1304565346050628,0.02506966572831936,0.12081254371487302,-0.018571480571742554,0.24092817976598416,-0.05924615948230732,0.35653524281638044,-0.03654827715850326
299,18.666666666666668,Exhale,3,0.05608970153532003,-0.06017031978702967,0.21189798166651813,-0.0400095284192448,0.0210963508327925,-0.016890229169701492,0.5423935603218469,-0.1401572257293667,0.47629435360209815,-0.009791071691402004,0.15631471793800158,0.02975613890864447,0.1613797097783909,-0.015180486998288544,0.2708925510153879,-0.051334784763349996,0.4034850072712573,-0.026770535422382783
