S,Channel,0,1,2,3
0,0,-0.05256069532669664,0.03437276472325672,-0.0691562014876258,-0.03674627490127062
0,1,-0.04417314460159603,0.014012432220784132,-0.09437226813979496,-0.024155858202181416
0,2,-0.02410797681741445,0.012340491458627664,-0.033864283664732805,0.02040236522324018
0,3,-0.010129388303666545,0.032006957308882304,-0.035655510402657,-0.018799783896352295
0,4,-0.03356312362407621,-0.006523476527526665,-0.07370159003417413,-0.025055461234521313
0,5,-0.05209185868358558,0.03314442473970384,-0.045263309504500526,-0.040448823246311334
0,6,-0.04869012434648844,-0.027811872845567128,-0.018440856293307425,0.007186267607886225
0,7,-0.08179381879107521,-0.019829686733217954,-0.024972778604257583,-0.015822854031889527
0,8,-0.04633644551430167,-0.006190042848180849,-0.041966311506832374,-0.03803170465601837
0,9,-0.06219148695765578,-0.027422781822003753,-0.04233793593029586,-0.06525011252990166
0,10,-0.07252882393773914,0.013069094397568232,0.013581168094487128,0.01295807506055182
0,11,-0.11329472690973576,-0.020618720158840313,0.009953034070786725,0.03228964646424376
0,12,0.004036960289626421,0.012450021513446935,-0.04658829972258916,-0.011399837759125226
0,13,-0.03725933537123294,-0.014615781227402667,-0.0064991503568466,-0.029726510064223832
1,0,-0.06421416175872756,-0.010199956675497028,0.014439604764404432,-0.030171352570063842
1,1,-0.09793396536881493,0.04709025196799779,0.04901736081346603,0.030130525502125673
1,2,-0.013990208362231908,0.026066425953313124,0.021174912487816697,0.03707246741040953
1,3,-0.019642196522793944,0.07092787555978175,0.044520002962061295,0.022556431959925623
1,4,-0.08819546007078966,0.05794799275073322,0.0396551466894606,0.02318587125472579
1,5,-0.02103697227771755,0.008701829647726825,0.0005907073992165049,-0.008636769186498854
1,6,-0.040455463699221095,0.0274253420973472,-0.06160605428001841,-0.0002974776173657549
1,7,-0.07236546458394306,0.013723619087378937,-0.026707044904291318,-0.028962563367128814
1,8,0.0005506344153383204,-0.024725882165230636,-0.058787640667504346,-0.051806665507933836
1,9,-0.04223731732190915,-0.0033021512438609615,-0.040109904038507754,-0.013555899269160288
1,10,-0.0512244718467866,0.002434446789641859,-0.021756831055401438,0.013455257335487674
1,11,-0.04779887922487876,0.006650336633245822,-0.039216465056959714,-0.011050039709594332
1,12,-0.026084437338396715,0.009725306967546421,0.010168422298382739,-0.003103417918209662
1,13,-0.015099538528737726,-0.003742857069824455,-0.02687938512786301,-0.006586693209176873
2,0,-0.038784715935464655,-0.07547651715721748,-0.0184547150489227,-0.05190066176619443
2,1,-0.06021856566290649,0.031070723774235448,0.026784186355834686,-0.031481617983586535
2,2,-0.04408743652669522,-0.01774934420128259,0.00911302280157936,-0.01737288836298438
2,3,-0.03265759675175583,0.036667872318813834,0.024202998546933332,0.017303787178182848
2,4,-0.08757175414861497,-0.003939398826868608,-0.01924897145762255,-0.04276830829809599
2,5,-0.059161630966507846,-0.002351838332225947,0.015437130306846607,-0.020953114206157086
2,6,-0.0022339872816339312,-0.08881689001132177,0.0864272780283465,-0.019503973724470214
2,7,-0.03691079993862367,-0.005781060245350765,0.08435498155554363,0.04105707134529371
2,8,-0.09808545030464662,-0.02337411852969781,-0.0020226535008182295,0.004263937509735121
2,9,-0.05025883201031473,0.01851582991687458,0.014035135805842267,-0.0038979960803610437
2,10,0.05032620360920518,-0.11237410311906672,0.05050335147418556,-0.07720767614535617
2,11,0.028928364198091264,-0.01994865375930225,0.032881787661963584,-0.050235354039165216
2,12,,,,
2,13,-0.008542409286667267,-0.06733068306006267,-0.03782194042437018,-0.052343696359778716
3,0,0.005780902208760294,0.01604883434719439,-0.00458509876033251,0.0013720651601808204
3,1,0.006131022266495117,0.008336158874790724,-0.0004866454685286237,-0.019227948774153934
3,2,0.016448843848395046,0.014154961488828196,-0.003666344849541947,-0.023140056890101526
3,3,0.01054175758835961,0.014668432270923923,0.007345900552973004,0.015299090309672908
3,4,-0.04207274014559999,-0.02459834292168448,0.004593751140742923,-0.010124386046878712
3,5,-0.029322692091020244,-0.00948314208528711,0.009577042251530074,-0.016030892320152368
3,6,,,,
3,7,,,,
3,8,0.002356988230021234,-0.009030025932236892,0.01251705621906767,-0.00019655787796196253
3,9,0.03144646106929157,-0.00515361320385067,0.028001831331506088,-4.102091870818063e-05
3,10,-0.004465902848155637,-0.001467122376785527,-0.00793554447057968,-0.010894763000931791
3,11,0.04906699883414219,-0.011077584575367833,0.004779087559232551,-0.04293748962674925
3,12,,,,
3,13,,,,
4,0,-0.05679034484663359,-0.05739652438574331,0.004558255521681267,0.05239749628862107
4,1,0.027729919743260584,-0.025757871101288,0.005634799841672704,0.024143687001488563
4,2,-0.001311942271879109,-0.0541872402758692,-0.026129057115744213,-0.028121445106133024
4,3,0.010605748658095986,-0.021282139668389533,-0.0016980171571045642,-0.05367481554247231
4,4,-0.04284478455483837,0.003141196800683603,-0.01153747173749673,0.05204711473273577
4,5,-0.04060901076408455,-0.011399704788558918,-0.007539738383229168,0.028532477817582565
4,6,-0.009332786268681233,-0.008229673913328503,0.00047096582126651644,0.029196525239108994
4,7,0.001953146163070514,-0.018755307787952254,0.01017139859482197,0.02408265882755145
4,8,0.0029310966868925778,0.0070758195517098815,0.02537436051683054,0.05475938850247469
4,9,-0.008359123852280534,0.006760947231300113,-0.015039278783613294,0.010274689719739317
4,10,0.017679479129888077,-0.03443278950835695,0.03236134697235482,0.030060273136004706
4,11,0.049377647714078335,-0.05877772249081281,0.07979664772334757,0.0692872602844431
4,12,,,,
4,13,,,,
5,0,0.05698221706833035,0.02813422375826654,0.0037939382510526402,-0.0244882184137781
5,1,-0.03132655928960536,-0.017612227730506046,-0.048374894413033956,-0.031062633331564553
5,2,-0.02202439509337568,0.002906252594070134,-0.021487154175575365,-0.015966699684109284
5,3,-0.023206363787286396,-0.03896890825170737,-0.044713888696135975,-0.0314842867315559
5,4,-0.05890704202674923,-0.049085085736987034,-0.09003621772838899,-0.0435191011362198
5,5,-0.009507292352295228,-0.00998127470875041,-0.040241319628233456,0.0026339008432963553
5,6,,,,
5,7,-0.14855942084731402,0.2847298468662867,-0.07118261945423807,0.026359082229133107
5,8,-0.02540651208982207,0.005177988084845236,-0.036520373098894464,-0.02369981213109341
5,9,-0.044666691163476026,0.03023625416641791,-0.036930110109414674,-0.018622459644342833
5,10,0.06345721305973134,-0.0137122905942402,-0.035364667167367254,-0.023739325629035007
5,11,0.007778520791835682,-0.024692353609819633,-0.04034671152721498,-0.031070553828568225
5,12,-0.050539278927854495,0.012089054982958003,-0.05036890156906488,-0.02255608049293311
5,13,-0.036483237222954976,-0.029474249969673166,-0.07299633232392298,-0.007160596473581416
6,0,-0.01259399936417329,-0.01361936938837195,0.002884786592938481,0.015574876093079407
6,1,-0.013347755210351643,-0.03788255961044577,0.010879902547046008,-0.008006620011510472
6,2,0.0021586860215537925,-0.0026285693150030734,0.00039754038836558805,0.007289022122448345
6,3,-0.0061614449496271515,-0.026072543600601187,-0.0015005091067990506,0.0017104021693815853
6,4,-0.040997158897183625,-0.12215519875615907,-0.05389690069298871,-0.0741293566712539
6,5,-0.03673719790573104,-0.0605610670477901,-0.0812993734578568,-0.03221719027850407
6,6,-0.0708483222576372,-0.08935845090726807,-0.10126086137875039,-0.04140455516625627
6,7,-0.007878667626134638,-0.047824166326027984,-0.03247536796587765,-0.0037069362202792546
6,8,-0.004018014663848831,-0.03763151453902495,0.004488087450710681,-0.029660531483085978
6,9,0.03179630043423248,-0.015608012629954824,0.022241346546950282,-0.006139024596087933
6,10,-0.007067417531312613,-0.03052955580129922,-0.02191410322392798,-0.007514824437939247
6,11,0.015930002747420745,-0.002800753326036686,-0.007113385798540754,0.014873337286300936
6,12,,,,
6,13,,,,
7,0,-0.028658269411077,-0.044827488265231835,-0.017346118180304536,-0.012482177792523568
7,1,0.02918552982514091,0.024066453910550352,8.676957493321663e-05,0.022048745643796403
7,2,0.0020278919738825583,0.02000093278441971,0.011689593803601434,0.03287638123430157
7,3,0.02018161933531874,0.02287460033978444,0.005083932860063364,0.00935983048254987
7,4,-0.01758013888080179,-0.0110293839779096,-0.01436397118573414,-0.005850790372312761
7,5,-0.02702443711331841,-0.015505929563335399,-0.016954657327824647,0.020067761674102767
7,6,-0.025440307644587663,-0.03615286136698276,0.0008095417704523378,-0.00015684524909881283
7,7,-0.0024845868709722913,-0.002955233705773029,0.001863477575628283,0.023886544210095367
7,8,0.016399528333610837,0.021713762734799802,0.0314480180127704,0.04339579472950384
7,9,0.031305547046779424,0.027228880712082997,0.02067231730441675,0.05012497696791161
7,10,0.007048873352484541,0.04070570537241028,0.005781412548727065,0.0026699190382406027
7,11,-0.02867799790394051,-0.020106110972814187,0.0039743975487126085,-0.029030289995523446
7,12,0.010838550424700529,-0.001102907248080711,0.002024580888067658,0.04518036682196088
7,13,-0.02020599159195785,-0.005036469772875438,-0.006214484156884621,-0.015315132433412202
8,0,-0.005970589313982432,0.012119113639893434,0.01740670073341174,0.0038380248548189285
8,1,0.000913116551637805,0.0230490818816609,0.03056491589566029,-0.010838754914397345
8,2,-0.027701491137696405,0.0011200724556012245,0.0006705157647672425,-0.023480568179224816
8,3,-0.060254748661082394,-0.03314954880089953,-0.006191369274796221,-0.01936576264673884
8,4,-0.04843457449405838,-0.05871187548403445,-0.020069932791567546,-0.0018990238518626502
8,5,-0.00557768396078172,-0.03396909608833476,0.0004207708095688609,-0.033929658292771905
8,6,-0.011749009983579911,-0.062235542729252406,-0.023239069060830505,-0.02396564700471211
8,7,-0.013922821152854677,-0.04707566737994206,-0.02833852226164131,-0.013385256336147849
8,8,-0.025324930046247657,-0.02045394696957416,-0.020971326930158584,-0.0016160026825933307
8,9,0.0010786745790971255,-0.014027272333701808,0.005652297815883171,-0.008773399828160581
8,10,6.915780154125306e-05,-0.024218757887655498,0.027944031342632132,-0.016983770507770404
8,11,0.003249459339627438,0.00242586233862967,-0.013987816559465394,-0.012166931266948048
8,12,0.00011196934594543663,0.00924936350854941,0.024692875084699004,0.0002922964029394186
8,13,-0.010204437361532396,-0.0019213975317735226,-0.006903763752111921,-0.017084405920841577
9,0,0.0005150789504010702,0.03349127047321976,0.05540585324893525,0.033868592449681816
9,1,0.024242762953784185,0.06511244928345443,0.021074943122013055,0.061649321680572064
9,2,-0.02049537360694244,0.0035918243880294263,-0.0061893623569743254,0.017150210053716933
9,3,0.01242613719335039,0.017739549404177702,-0.01876157956338263,-0.025212166840604573
9,4,0.014203515965286947,0.07253925465886563,0.01995119234343278,0.005904775015855903
9,5,0.09224032952554213,0.01611818675493653,-0.048439412211991516,0.029985760655340893
9,6,-0.03859572510024693,0.0023777021505135866,-0.009221095249298823,-0.03428688906787941
9,7,-0.005098145686902598,-0.019714196682275996,-0.03836668867841941,-0.035650057794917665
9,8,-0.03826897986936213,-0.011730543233458188,0.002231807650408663,-0.02071058017789332
9,9,0.00354645140538689,-0.0033515260272324776,0.008322375325513026,-0.04477956125122476
9,10,-0.02983216120815499,-0.013971788606574598,0.0087284924022066,-0.010181104542197407
9,11,-0.010714359778892528,-0.06399049144799593,-0.03003582957092415,-0.004864442708821204
9,12,0.06022796938578444,0.036492136393406364,0.008798398903891481,0.006887062377006424
9,13,-0.06000354770664834,-0.021616700663644996,-0.042159747970114604,-0.030641544403593318
10,0,-0.009258409161914505,0.041984277189753595,0.029383571693144806,0.005582355872874887
10,1,-0.028773233353946315,0.05075904236172171,0.02113372512611763,-0.04732738468400049
10,2,-0.018109869842670948,0.006799288321587508,0.020613306084548245,0.000576936426078099
10,3,-0.04742375947343323,0.04593951957411589,0.04742983095047274,-0.017213408876469626
10,4,-0.04478084373485518,0.02176109904367138,0.016553862634690032,-0.027593008499392703
10,5,-0.006668009919403564,0.007038315083339012,0.0005690491191212207,-0.027654818478827194
10,6,-0.043063978200049924,-0.05084465691793949,-0.04673669657115166,-0.04199298447339222
10,7,-0.0087569896006639,0.002627048906934193,0.012145223771380964,-0.00242720417029021
10,8,-0.007332074728833053,-0.0019286722392498285,-0.0036878058901632827,-0.012576606507367694
10,9,-0.020711845124793682,-0.007456998873405531,-0.032958437065312145,-0.0330681026115083
10,10,-0.03395610054762475,-0.022165725881450698,-0.030085183466311692,-0.010611724312451772
10,11,-0.004171713701511548,-0.004090635359806753,-0.0052438600520897235,0.0016746313208345503
10,12,0.015071496301942275,0.027864023003722562,0.011302826934723832,0.022002795362436118
10,13,-0.01778113611746769,0.006406747961447377,-0.003745349353258909,-0.00010335827772973278
11,0,0.03917840792195735,0.06209742911987877,0.03863921742068427,0.02459301382200001
11,1,0.019738924649438352,0.06132609210866089,0.05227408835580487,0.008692252616818594
11,2,-0.00016627098203093294,0.01828753532701646,-0.0009057771192114364,-0.004259936010013712
11,3,0.00839237501328881,0.05010183154485415,0.02328267447624431,-0.019395780327776304
11,4,0.014999584756293434,0.05165207865241882,0.025834483065669094,-0.013096236825748675
11,5,-0.009725008826452409,-0.00507772343236668,0.004370996052058409,-0.02494502491195072
11,6,0.00072209681628343,0.04521774279185137,0.003543794801591776,0.04276389572111019
11,7,0.031152825119840192,-0.032887939043611404,-0.00726402380501899,0.0014510432413593962
11,8,0.050096216850913776,0.019440873981272387,0.0421455185238131,0.058441861548409156
11,9,0.03721998456695262,0.06384788426702588,0.023313863980767884,0.005480899936844148
11,10,0.08536293517521576,0.06900884613094545,0.03477626854383389,0.06362254974905145
11,11,0.029961775193988627,0.031000363429840767,0.034479588685041467,0.04359043404843649
11,12,,,,
11,13,,,,
12,0,-0.04435319121458459,-0.008072438959466903,0.010403497026137033,0.0009786557687930678
12,1,0.023830426106083186,0.0052279762053830305,-0.006524232985816033,0.01037776316414852
12,2,0.029166002241369345,-0.012615419516595389,0.014908425948978465,0.007195495711518209
12,3,0.002910840604273513,-0.01527699746612368,0.0028499160421343764,-0.019153530160319066
12,4,0.0029807901817745655,-0.005809470219756891,0.02318617283224205,-0.008326766710327487
12,5,-0.05248443818384198,-0.04557185504936695,-0.08571162155795262,-0.0400697434372008
12,6,-0.047501089727707536,-0.027721427003099788,-0.05542509154401999,-0.06376126281102872
12,7,-0.014042546605395473,-0.004281036035175174,-0.0479127178430144,-0.05458959043258367
12,8,0.020317464475429592,-0.0039028622957452677,0.04526829447781924,-0.0010732326525520518
12,9,0.03646766818891914,-0.003614752354906993,0.017701687123987585,0.012466451161207393
12,10,,,,
12,11,,,,
12,12,,,,
12,13,,,,
13,0,0.006312362094702263,0.00338486918883949,0.000873982303040243,0.008086057009825795
13,1,0.04177815612465719,0.00399964045303371,0.021892705360467755,-0.010866889338189701
13,2,0.011112876797020043,-0.04209505576245994,-0.016300807258207112,-0.00416145283578564
13,3,0.008208026122634219,-0.007670595706997167,0.026752904157824685,-0.008878186037074085
13,4,0.02019103752232443,-0.013976743517162195,-0.025168351125232007,-0.019813543132091507
13,5,0.06635671477794204,-0.006323932187383788,0.019201439649467827,0.024122366243015975
13,6,0.01763240597369112,-0.03437150487372199,-0.09002280030261592,-0.053827749738435494
13,7,-0.015711730339891837,-0.012264535285217157,-0.00414356927004506,0.006911248437839564
13,8,-0.05120209711943864,-0.03234995506381193,-0.041424155479797296,-0.07339161672994397
13,9,-0.012767887825505666,0.013104344514057755,0.044840491992331685,-0.011453413340848257
13,10,-0.019263690321919602,-0.043635080721593535,-0.11165567879964314,0.0032255816171823104
13,11,-0.003984439593906985,-0.025646364655692838,-0.102830350851532,-0.060421597312153456
13,12,0.013279328706761772,0.01412848247454703,0.018381551224381502,-0.0012194390593451075
13,13,-0.004919879203280973,0.028098623062157213,-0.04957161456922155,-0.052453102527828005
14,0,-0.008184246138152558,0.026383150720507294,0.02207670683478927,-0.00793695268256741
14,1,-0.004633101543580305,-0.005747185370926778,0.014128555172032797,0.0029588051372283724
14,2,-0.014847949310774232,0.009327548491912531,-0.010287990349758313,0.006853532733787863
14,3,,,,
14,4,-0.06992039130547024,-0.021416262000897125,0.03772534830862828,0.032311993623978415
14,5,-0.036349049531648456,-0.011073083739348281,-0.015552372594087583,0.02520472711043764
14,6,-0.01812724675866945,-0.013566422786807992,-0.004884818804890025,0.007386799120202813
14,7,-0.03519080820380363,-0.01250349597754205,-0.0244075685277954,0.01747926759519236
14,8,0.0040143185102165,-0.021950522384220173,-0.005380735258162862,0.00045618195737325977
14,9,-0.015126646435139971,0.00505057840542816,0.009991261622624037,0.016693444911673662
14,10,-0.01224979527492252,0.004486636177498171,-0.022187907370983726,0.014769738358117228
14,11,-0.02824749784944988,-0.02572956854267797,-0.02644036150609647,0.01007669919215808
14,12,-0.011549808957476003,0.018517568197186054,0.0069784011404619255,0.0029369643570434367
14,13,-0.011591373684428407,-0.002272242754440921,0.014210206256951036,0.007230854742597517
15,0,-0.04966162898715453,0.009097203972941887,-0.025550458952061813,-0.02548936880808372
15,1,-0.007287004968294551,-0.019531246267446404,0.033385765120360664,0.03245628792709332
15,2,-0.04248605852635789,-0.01025598124925799,0.06228112239229566,0.029307013273355303
15,3,-0.017517094670073376,0.0022512729331116425,0.05875640667323148,0.014533114243781113
15,4,-0.06549886231350273,0.01269830106401846,0.007597058413360868,-0.019306728151492564
15,5,-0.04102087553210769,0.056114938360359724,-0.06514935257561869,0.014638834228716422
15,6,-0.05089480931492899,-0.08397585755495049,-0.0524532456850516,0.020861863315188016
15,7,-0.02844429342445183,-0.011189272433887872,-0.019930982817171185,-0.04432941117052907
15,8,-0.012749940369932771,-0.033983813561552584,-0.019010016703653893,0.029558584182924938
15,9,-0.006271322524867232,-0.030171669365314284,-0.03430127460589237,0.0053479587976307955
15,10,-0.012504768458556059,-0.028904567504188405,-0.028403988377585496,0.04431709810707193
15,11,-0.03570204156767594,-0.036077860781861835,-0.03684414589704173,0.018798098342053916
15,12,0.00965064772110989,-0.0057423550638966364,-0.004737388408855262,0.030002893081091712
15,13,-0.05489350594345158,-0.09587869280977238,-0.09041609499074403,-0.0310752340986872
16,0,-0.01938462751585563,0.018056225640808925,0.043689373467538845,0.038861961012489184
16,1,0.053884015073802825,0.03374638970224103,0.004984556305348898,0.034354516410990285
16,2,-0.003328492477661057,0.004333432987244208,0.025530987476353722,0.015726899486594777
16,3,0.0001792762305175085,-0.02221933936453669,-0.023577232658274692,0.032273349993891955
16,4,0.030635117065380163,0.008124582829288629,0.0696511511872576,0.028808430290732698
16,5,0.03175026917069976,0.03545018181039339,0.01849500955930495,0.030066800710244323
16,6,0.05443404002125089,-0.00041775812855061515,-0.03535833525894279,-0.028978877063452747
16,7,0.038585933357847504,-0.00723517166575096,-0.03352756636894897,-0.021330263419916264
16,8,0.021419564620236316,0.03822807547433904,-0.0008043400134952408,0.012886189294561291
16,9,0.02363027639286533,0.0385648188362518,0.009855350709334304,0.007530537555033595
16,10,0.025420833330467896,0.033863223275321444,0.006375097552150136,-0.031668690348586555
16,11,-0.06738915528249258,-0.12986171087113454,0.05751564636945753,0.008858870451400774
16,12,,,,
16,13,,,,
17,0,0.02250079074013423,0.006759810362143324,-0.042833582159383946,-0.11773784324332542
17,1,0.027768394807136932,-0.04689323215110068,-0.06520731081369444,0.013827277454855982
17,2,0.005996905039724039,-0.0016399105176172636,-0.03338171781129419,-0.007407666360796174
17,3,-0.00698895849029322,-0.025205464762911883,-0.05265695731837877,-0.016483633379452033
17,4,0.01922965013457101,-0.08123073274996333,-0.08893146364083392,0.02654707987419131
17,5,0.0050857412676815214,-0.037929898338556006,-0.07737346501373685,-0.03510985745609382
17,6,0.03864744626846843,-0.14143144426232637,-0.24287682542976408,-0.35487551482674656
17,7,0.045216119385234906,-0.07975996192614337,-0.1986100586537698,-0.22937706578388797
17,8,-0.035507407278674324,-0.04891305608667814,-0.07634045024711829,-0.11475877185057992
17,9,0.02516808698728507,0.00043519622244433677,-0.049954361620971555,-0.057994756138353705
17,10,0.05581579381684619,-0.014847253975197802,-0.05968174954393265,-0.3493330106682446
17,11,-0.03674941681064925,-0.012634228058146891,-0.07000343046414095,-0.248912526620143
17,12,0.046960805271807,-0.011660034181397022,-0.08478085361400298,-0.18265474045617788
17,13,0.00835613409226785,-0.022847960122544392,-0.06172840282319337,-0.11777123445228324
18,0,-0.03299899460281015,-0.04551536252234191,-0.01633541465311963,-0.03325402503372988
18,1,0.005480423767978986,-0.040260543390970405,-0.03221301976487375,-0.015727364733372707
18,2,-0.01018834650683813,-0.04733149134734921,-0.03426854760982866,0.0035529291784322644
18,3,0.03309260650000501,-0.06416809932490551,-0.028256404626327794,-0.011481778452036654
18,4,-0.031135859702680138,-0.08754496125423122,-0.04233948008594919,0.012355345047245298
18,5,-0.042821042197975855,-0.05126073101891616,-0.02751197700438084,0.009324175305619183
18,6,-0.014004490217905055,-0.022841808408961415,-0.026084060013065413,0.004960430073897208
18,7,0.01569984511222862,-0.016217430297303794,-0.03953644454333126,0.006882572954461414
18,8,0.022363629865880644,-0.023091904651136117,0.05330576023954957,-0.006063760108206399
18,9,0.024359088860785576,-0.024219908834794187,0.0192215335830708,-0.005177605485590863
18,10,0.00356459521960958,-0.04753071160940133,0.00421817212165891,0.003677215634773412
18,11,-0.014686462869468413,-0.01299561068871563,-0.010384111328995702,0.026010772558909066
18,12,-0.008489071853357216,-0.05182468813413296,0.030461643651287975,-0.026076675148085957
18,13,0.014283270656809448,-0.022645074429219283,0.04927335060894795,-0.00535084341773243
19,0,-0.020975511887297908,0.02547479501052218,-0.011357032671914472,-0.04529232544414986
19,1,-0.007411060518354136,0.022163715979627286,0.002237236861686328,-0.01535805236187795
19,2,-0.020133635135994917,-0.006268575397139747,-0.022033206302151453,-0.03129985286381047
19,3,0.0075630205828411505,0.009804261007733801,-0.012836428872994634,-0.020151588734847153
19,4,0.045063625942232274,-0.010542648620830682,0.03364455099644307,-0.020267143107010218
19,5,-0.0036270463757819968,-0.018158936088904357,0.017671451634002192,-0.01072240771020595
19,6,-0.06164465602461465,-0.0657841883716399,-0.09336479242577192,-0.03633271397058594
19,7,-0.05798595584471256,-0.04653708412838949,-0.05444830050763626,-0.0399628666075669
19,8,-0.03338725252976368,-0.025251926106418087,-0.046835317342269624,-0.014661444554264571
19,9,-0.014423576746172588,-0.012763645040544667,-0.029861737445796153,0.010614528031885171
19,10,,,,
19,11,,,,
19,12,,,,
19,13,,,,
20,0,0.01624651164817923,0.005564671695011594,0.016153758242113556,0.04743022198081236
20,1,0.001028096237457283,0.007135365520858892,-0.005470070062663094,0.019415460705197913
20,2,-0.0053298183978989005,0.00619809169308407,-0.0012949533043884038,0.0045353050514074815
20,3,,,,
20,4,-0.005866747468211313,-0.04541266243728069,-0.004197472145052419,0.0055239089101213135
20,5,-0.006759119133608582,-0.0370447047065683,-0.0011535411120178372,-0.01110372060176439
20,6,-0.049619398940772406,-0.04382360922270697,-0.05356301083876775,-0.03420037375606238
20,7,-0.0025264324269378283,0.003151053824845303,0.005512315960081595,0.005356563809462917
20,8,-0.0025225230196489618,0.0007830592562773553,-0.012771032996151177,0.013816976043118177
20,9,0.0007267269047759696,0.006728368805483707,0.00251722599645419,0.007507429464505721
20,10,,,,
20,11,,,,
20,12,0.004878197762907239,0.016063391318594696,-0.001627020523474316,-0.0019506404987391919
20,13,-0.005638661768189687,0.007031369815100106,-0.008965869718757445,0.0006459660379736054
21,0,0.015100700863308772,0.010462379004401726,0.0049961602170365575,0.011479388835325205
21,1,0.021613523972155387,0.011109274041953134,0.020246936310091758,0.036333013124040706
21,2,0.009594012671519015,-0.001565855279106413,-0.007937690391001477,-0.0179641864217366
21,3,-0.009627943495809905,0.001640465262565155,0.011794427578840557,-0.014569756117576996
21,4,-0.02525440966888726,0.003986249991045908,-0.028034591791190208,-0.046639029208896086
21,5,0.01856350455322981,0.018658639916493563,-0.014333560101022352,-0.027949932190959127
21,6,-0.006121487684320126,-0.08542055747139882,-0.0193405687677425,-0.04254278072969685
21,7,,,,
21,8,0.04176032615320287,-0.008775403105265242,0.015313746121618893,-0.004111506669137371
21,9,,,,
21,10,,,,
21,11,-0.08321427909640218,-0.0018848475096954992,0.06738031210453084,0.030449993597865082
21,12,,,,
21,13,0.030840155189144392,0.02348786604243044,0.004697321137664463,-0.01767190219883138
22,0,0.01790080565467615,-0.011035831390611452,-0.017166013628097134,-0.0028846423947780585
22,1,0.0004026193134860092,-0.007951563075106794,-0.04032779889442019,-0.023847539887311028
22,2,0.015138305862521996,0.01195710548123979,0.0008329550395007863,-0.010472539500765963
22,3,,,,
22,4,0.0067039830397970165,-0.014268669062311029,-0.021647519245186937,-0.041867467284065416
22,5,0.012837743976891917,0.010511767769058364,0.0049847115221774135,-0.03523589179317904
22,6,-0.05563417937977436,-0.05216838471749949,-0.04082305963321823,-0.026359805028310333
22,7,,,,
22,8,-0.03761918173575775,-0.03775267479098017,-0.04582557190359563,-0.04107130137978751
22,9,,,,
22,10,,,,
22,11,,,,
22,12,,,,
22,13,,,,
23,0,-0.266249693920525,-0.2281289053347126,-0.07096410100192264,0.023270303152103444
23,1,,,,
23,2,,,,
23,3,-0.045471094096125604,-0.05860122745458979,0.019145004439078503,0.0020802225826187628
23,4,,,,
23,5,-0.17040590689613488,-0.2414550315560012,-0.2914782972112768,-0.16304376507624416
23,6,0.006353686611443728,-0.02690819777627007,-0.026305323796241578,0.014705478252370847
23,7,-0.05553921782427242,-0.08882672798651416,-0.05379381724903473,-0.018583417350623847
23,8,0.06868930643613554,-0.01478450948633191,-0.025818082978879307,-0.04113810945562245
23,9,0.019279430866468855,0.00921822023563065,0.010653681499524184,-0.010955775723095577
23,10,,,,
23,11,,,,
23,12,,,,
23,13,,,,
24,0,0.05859146671994524,0.1278169065371427,-0.10471128155181174,-0.030491930098828866
24,1,,,,
24,2,-0.03777551073236585,0.10426345226533693,-0.055812570248509996,-0.09890807479018242
24,3,-0.007362372406327938,0.056528145802328185,-0.007558909154801439,0.04617386735436609
24,4,,,,
24,5,0.06990110359873565,0.01007870773200183,0.022005722743754817,0.014707099227753418
24,6,-0.048862651462252354,0.019732009717305043,-0.09303531026204316,-0.027513151254464584
24,7,-0.030803236486913764,0.04274125164244662,-0.019916257483990507,-0.008807156871805237
24,8,,,,
24,9,,,,
24,10,,,,
24,11,,,,
24,12,,,,
24,13,,,,
25,0,0.024356015011763568,-0.010151747004516593,0.03701432830314789,0.011398852137996527
25,1,-0.012464567542305691,-0.07781436888937894,-0.015764737024073716,0.0013330393313684883
25,2,,,,
25,3,-0.0009631533486850502,-0.010703340649350556,-0.00017048969564540726,0.017138006843650785
25,4,,,,
25,5,0.037105501054653836,-0.037867465736499566,0.031025178660200846,-0.0048811681111731705
25,6,0.05280772688377071,-0.04582458518868117,0.01205057564351908,0.015403935516330113
25,7,0.015537983781893928,-0.00889927564568133,0.0024244710361321312,-0.013567232341088054
25,8,0.01786174927566647,-0.010362684849124922,-0.013487445728471985,-0.022663445331834214
25,9,0.027722565173148597,-0.028020437262669635,0.012776786313973994,0.017837473534757172
25,10,-0.0021797797531381688,-0.0446946141672849,0.013151493092042287,0.004643991089195915
25,11,0.007869075942403183,-0.057854341024116795,0.001261822274046849,-0.006056306579704912
25,12,0.032964533408321124,-0.018865944374996124,0.03392422588567316,0.013419841244150231
25,13,-0.00474898709867219,-0.01636409502821192,0.005173797831689101,0.0035080016085648567
26,0,-0.03725668536746575,0.025046642087137316,-0.013560532049976268,-0.0123462196904095
26,1,-0.03005402323905254,0.0019428207277668603,-0.0018436460564362884,-0.017352121978044387
26,2,-0.0163199045211374,0.019274261483831344,-0.017266396747953418,-0.02195110391119196
26,3,-0.010297183539490988,0.0017835198432081367,-0.003342000839912304,-0.026573419797468106
26,4,-0.04252176630627031,-0.006205734594640842,-0.04268860145905711,-0.06263597466021177
26,5,-0.02612657281814313,0.05394435843301839,-0.053495140690532725,-0.03436549260887262
26,6,-0.053815267652875844,-0.005071887728061594,-0.020697900729153073,-0.07098505311220014
26,7,-0.045881233438390456,-0.005616673963844378,-0.0070314903872077655,-0.05136470488366882
26,8,-0.005058898370823893,-0.00617188389310202,0.005044819935800777,-0.019978133716584946
26,9,-0.0008182043325914899,-0.004999533177344477,-0.0011036836929501509,-0.006052140884948926
26,10,-0.024868072850563496,0.039035672562973404,-0.030163339284444313,-0.09477618284937823
26,11,-0.032317435256364296,0.04100187972142299,-0.003584108100307923,-0.10657910037106365
26,12,,,,
26,13,,,,
27,0,-0.03591059818391601,-0.04482835297900756,-0.04402407674621885,-0.03605790186466971
27,1,-0.023032116997367246,-0.029843165556077418,-0.0252488675095077,-0.03323019036183148
27,2,-0.015074197544576532,-0.02403452728280832,-0.02438314147759333,-0.029841594290537364
27,3,-0.014292083566524522,-0.02005970511146787,-0.013512772852507252,-0.02785864357878609
27,4,-0.019000140983696772,-0.02941848660910785,-0.049111360773298675,-0.04466020737977978
27,5,-0.013221904548568484,0.001452410997465922,-0.04841005565710628,-0.002178408962687288
27,6,-0.024113015282544215,-0.01591566133036265,-0.058925437164110195,-0.00742181956742527
27,7,-0.033156765287496975,-0.016439862392492167,-0.05378903238673125,-0.010942995311335833
27,8,-0.026520548271935042,0.0021557969432880767,-0.017457356659762578,-0.0064183828004252775
27,9,-0.03121749007428837,-0.004343135905917287,-0.03737165229858966,0.0066979118119542096
27,10,-0.035301702331459434,-0.007675576902228952,-0.011033916182943743,0.006427622338061807
27,11,-0.08428249745360274,-0.04048469120728107,0.00032563650774780373,-0.005365448006537823
27,12,0.011118092433895997,0.007993927169548528,-0.00820577032855547,0.04563096266543748
27,13,-0.032755807629881915,-0.0110417659792224,-0.0046634621183566745,0.006928944096116116
28,0,0.0045832068529482635,-0.0030148005692370336,0.0010419238292842573,-0.007413895725004648
28,1,-0.004389438711233774,-0.012788984114709882,-0.0005893162548379947,-0.030245304258733372
28,2,-0.01578734108947982,0.006732969709206098,0.007868549305323278,0.0009745866271195088
28,3,0.008340079536122369,0.007242455059360265,0.005671301762586721,-0.00841035696229859
28,4,0.01203969956868394,0.00495808440442643,0.006872419772783553,0.014059456299571116
28,5,0.008987969708972105,0.00543882520352418,0.014200640748370536,0.0007539878878645605
28,6,,,,
28,7,,,,
28,8,,,,
28,9,,,,
28,10,,,,
28,11,0.024848988575123902,-0.032833795355986545,-0.01946352921895755,-0.0006211983089024711
28,12,,,,
28,13,,,,
29,0,-0.02089269612423294,0.013171616791096085,-0.008446427452077434,0.016485679784461308
29,1,-0.007212228419762928,0.006304571147821832,-0.002311863846321542,0.01244517759765717
29,2,-0.020719134948116197,-0.022942085813102343,-0.03023044082431966,-0.01073273865051641
29,3,-0.013284474566406676,-0.03313259372493681,-0.011586384338655364,-0.023453162133646753
29,4,,,,
29,5,0.026395103420237594,-0.008908222341418857,-0.012873165362642247,0.00441885570966002
29,6,0.023706583473202304,0.01127224085236033,0.03205887276364021,0.02831024444324944
29,7,0.006012619526170295,0.0035838127339423193,0.002311958694404731,0.008917643371637352
29,8,,,,
29,9,,,,
29,10,-0.012242564422150269,-0.014210572893597204,-0.017231928302015937,-0.013440471654821486
29,11,0.03548475581565267,0.0142079990106319,0.01697432252866942,0.019873724219062416
29,12,0.003997194473772935,0.01351174805807503,0.0031154869450106654,0.003296428000994977
29,13,0.021789851807994563,-0.09074683242822086,-0.005639852805322225,-0.05711773719215446
