S,Channel,0,1,2,3
0,0,0.02953802539639016,0.008534288890052527,-0.03251102772320809,-0.08853278118769808
0,1,-0.0022482364666177776,0.0010338114360290119,-0.026421190267147607,-0.0804060097097964
0,2,0.023219039152017586,-0.0118998337699095,-0.028039610861423224,-0.05127162050026776
0,3,0.008998472611253777,-0.05544788322179214,-0.054701880085215454,-0.043898931821347846
0,4,0.02981500375534425,-0.019523260360651076,-0.0467874233003971,-0.09546584226347937
0,5,0.011286121564462723,-0.0378054526983182,-0.013628128983163203,-0.07047003688633946
0,6,-0.011860831668512924,0.018803932037451013,-0.08463392691849936,-0.060772396263490194
0,7,0.02607864731333553,-0.03989889408538235,-0.016012742508337494,-0.1285044552983357
0,8,-0.017240238352457173,0.016354730135785985,-0.027118759959552607,-0.045978841163701455
0,9,-0.03547620707079116,-0.060763458705792014,-0.016599363708544514,-0.08944049847206291
0,10,0.10475578642038776,-0.016276204353779203,0.03516923998262685,-0.024750906630368004
0,11,0.035423525848953225,-0.06549109463075206,0.004287295352447346,-0.03932165975753049
0,12,0.08524762292521784,-0.008598940296537088,0.00869609912163172,-0.05914907626473607
0,13,0.02815075580969406,0.00885717871464719,-0.002565550261438718,-0.04571826939849872
1,0,-0.0498573867917123,0.009704160404207287,0.02261529906804795,-0.012085737549837555
1,1,-0.014546323160877596,-0.03354672695392638,0.009474845067605164,0.006631140120931789
1,2,-0.02463335550544062,-0.022037180386906365,-0.010726574099258389,-0.0179251120688933
1,3,-0.0008455608812622703,0.014588809778890108,-0.03271804658736598,-0.05253195088063876
1,4,-0.03895876617747689,-0.03176987935750332,0.04655136576185104,0.016445350780262703
1,5,-0.08549098063490267,-0.026383189389699288,-0.03812478701386308,-0.05315239647189827
1,6,-0.07551854246415189,-0.052866792468102296,0.026104960054771212,-0.10940921763795107
1,7,-0.17338226760144426,0.023717516957003987,0.06031402079882723,-0.0423472410186347
1,8,-0.03877001813563601,0.029893383950240816,0.029343973637659507,-0.042444565805058336
1,9,-0.0977544973541295,-0.01535417364432068,0.01478698295718469,-0.058160853334748894
1,10,-0.03860366078946523,0.026701596906827305,0.06470502014719877,-0.019858752967807498
1,11,-0.09807467737443161,0.044863800110312504,0.06932258008882726,-0.0404427533555983
1,12,-0.04293798387842027,0.04842247938570182,0.08159193809434118,0.03868726448923748
1,13,-0.04670369791631512,0.00150644419082221,0.015051600603500559,-0.01787612603726242
2,0,0.022043271642219538,0.06693235274579447,-0.01039676252263539,0.06273871700136908
2,1,-0.06734951372960679,-0.017175567904716638,0.007440599623079408,-0.0635575510375671
2,2,-0.016148215469047277,-0.015790215789369583,-0.0031414481969670037,-0.02887842988695953
2,3,-0.058152956077251086,-0.004338194939607482,0.019066710162039938,-0.01924055862606839
2,4,-0.10563850688831093,-0.03644480951075075,0.022043798121670902,-0.10869410981175438
2,5,-0.050960175959252,-0.00259925717641539,0.00808084112385729,-0.0887577611537895
2,6,0.11945672071657762,0.04376073835201852,-0.053246877436375656,0.18126149510557357
2,7,0.03941521662830603,0.08755631778521554,-0.03826971202583208,0.19535937975376394
2,8,-0.014844176680723546,-0.01319768628756061,0.01845605341220534,0.05297395853732857
2,9,-0.003555155255802266,-0.0009934456882136455,0.020296984575897264,0.06852025018461853
2,10,0.09934919768277788,0.09367804176676069,-0.03141858262382269,0.2588467050252439
2,11,0.12957519057396946,0.1073129800938728,-0.02165557184022775,0.1881670935816964
2,12,,,,
2,13,0.06933551388747924,0.03854136586058238,-0.09148841669208434,0.11670505653539866
3,0,0.005119481287446396,0.008520839388325869,-0.0023231467371928657,0.001203856397304517
3,1,0.00813497771922351,0.02977768246583503,0.016945658491083843,0.0043974149848209475
3,2,0.008103830857815726,0.022713299982883635,-0.0064834468069610825,-0.015023773476188565
3,3,0.01199621070977296,0.009592968958431354,-0.006055598149021997,0.03381074112248019
3,4,-0.051210879876389066,0.002023604332319854,-0.01335483878759126,-0.01612001189861914
3,5,-0.07598239867917601,-0.0378295394981242,0.024273311203937803,-0.036494056623051906
3,6,,,,
3,7,,,,
3,8,-0.0014271883876896716,0.0044769282827403275,-0.0011386457985604606,0.012249421035899464
3,9,2.7301974680403995e-05,0.022608953813093205,0.0005426060504882121,0.025698607703664153
3,10,-0.010969410273714607,-0.04459687899868551,0.08523989102163278,-0.0442418530593764
3,11,0.01311149179918852,-0.06699196110393331,0.0783013738040656,-0.03069926557908369
3,12,,,,
3,13,,,,
4,0,-0.03802372460059894,-0.00893874499184637,0.004577702505653328,0.0016130897413839569
4,1,-0.051822625110413044,0.047126367801237246,0.009642081333630677,0.006047920592376795
4,2,-0.012507205996150557,-0.01647819241185135,-0.014806369076230105,-0.020528547667458256
4,3,0.008239979386070505,-0.014171283119766055,0.0037533362244379347,0.0037142328375537213
4,4,-0.0346999172786385,0.02068428132893865,0.008409605648771851,-0.04596850178708354
4,5,-0.04346220984453918,-0.007671293320547735,-0.023214481880568752,-0.005219129069195474
4,6,-0.009375096606725933,-0.002024390585740554,-0.005301813363484609,0.014148428591370492
4,7,-0.013419093012512774,-0.021757961442879968,0.004527847610108011,-0.013843380222428396
4,8,0.014792984273577395,0.0012150735344003875,-0.006504238614916634,0.03434438130707194
4,9,0.007511934416761247,0.0001051291325379545,-0.0010103256526862849,-0.02225195466808521
4,10,0.008698640057753353,-0.03456931234510331,-0.00400756325406744,0.027074002641325486
4,11,-0.008113285356180302,0.02291246783225565,0.036632476310792035,0.052728568200518286
4,12,,,,
4,13,,,,
5,0,0.018357121126925096,0.03955812495100765,0.08801734417311673,-0.00839273486247372
5,1,-0.03428292644837571,-0.04959499184187327,-0.018776981236483085,-0.0018908000160144179
5,2,-0.015176571679415137,0.017894438596442686,0.03789786871422671,-0.026723574069866217
5,3,-0.030554258852022568,-0.010002618562094917,0.01111817831326147,-0.0370946200198958
5,4,-0.05973670810909791,0.01909400616440218,0.014387525760884444,-0.025310195633055414
5,5,-0.016087077679150647,0.005500880629898338,0.03879459949186634,-0.03125451593278927
5,6,,,,
5,7,0.1512927194214747,0.16844477853369005,0.051256680487295,-0.142390006244271
5,8,-0.008760881875825658,0.07689584386170205,0.03255312470920984,-0.04537051226429789
5,9,-0.037626006072354334,-0.033489922811122855,0.01671629899758819,-0.006930736540768565
5,10,0.004911966895049636,0.028337073809148038,0.06364466620901424,0.0037447537061006033
5,11,-0.011756524497207738,0.014472127778396503,0.03918214719574939,-0.03915633361173718
5,12,-0.011040536202399092,0.008856994151476432,0.012413156679384639,-0.00866475496607255
5,13,-0.0379199836838844,-0.027164132570269565,0.025211542814833895,-0.05978361903005125
6,0,-0.02878739527441004,-0.013500116689023517,-0.004845569217458999,-0.009607910876164702
6,1,-0.03815584194601848,0.009164836394834099,-0.017603951145173324,0.001813990073530425
6,2,-0.01570919848416994,0.013699237989898569,-0.003465239545504402,0.011331067346656093
6,3,-0.032972283291318134,-0.0061100632735649725,-0.017938106409370498,0.0017510015446525853
6,4,-0.08269062914537909,-0.08468519837409878,-0.04319686409448457,-0.020092781342702537
6,5,-0.023606024446708996,-0.05860857180420025,-0.0006280131553659217,-0.03493205668686916
6,6,-0.022418001116135438,-0.06833530309738983,-0.045382810907787584,-0.004454362855645413
6,7,-0.022381087701564398,0.0007625571092934294,-0.02038206128382376,0.011562297277649371
6,8,-0.004628522716678505,-0.008382447686259082,-0.03816112549039831,0.0060198106884100065
6,9,-0.007087216272593964,0.025581289189193248,-0.029796290630465072,0.02617544774506784
6,10,-0.024155962026565014,-0.024511896277462464,-0.0004772450122744174,0.00862138897839278
6,11,0.0005561503518571717,-0.0012498142513774852,0.02890982949037241,0.017993496497271885
6,12,,,,
6,13,,,,
7,0,0.035466012069705496,-0.06408955175707375,0.0072370768549157955,0.023350335401450425
7,1,0.012368321986294069,0.0020705627036268224,0.0014394242456528734,-0.004253433094632524
7,2,0.006680200812716615,-0.022957567671003404,-0.005349427533510572,0.0025258703201414146
7,3,0.009618594201708791,-0.00582747256169747,-0.010876018600779209,-0.01834236590567525
7,4,-0.002970317246258955,0.004622080739002368,0.008327833655105895,0.01814446141521563
7,5,0.02511948223841521,0.004550813290233398,0.013686315274532079,-0.01372895698537584
7,6,0.028055119366544458,-0.04498540206823554,0.0010673975038252054,-0.058999590112244454
7,7,0.023743264836523535,-0.036085951114048574,-0.03552408254394903,-0.06673063312240908
7,8,-0.027166744785693676,-0.0043144751448722,-0.019819382946775467,-0.06038418016342426
7,9,0.020966362184174307,-0.012500502095202815,-0.02007453972836606,-0.0396089741524388
7,10,0.03848101214161537,0.008923005501087208,0.044582331307741245,-0.004298628648711548
7,11,0.04891301293336986,0.0032551693849656727,-0.016295039082952996,0.00363972973158541
7,12,0.026275106634443,-0.01582335632496081,-0.02457346297607559,-0.00247848787543965
7,13,0.05252058117653275,-0.013132027495248869,-0.0029574781679735174,0.005756184889320213
8,0,-2.7661079402059477e-05,-0.05621542962307248,-0.007364201179133732,-0.014664414612145703
8,1,0.017000343544268937,-0.04191066924187638,0.0027297193266816737,-0.08222925320120056
8,2,-0.027988523111970757,-0.018585088698246408,-0.029457820543076843,0.05664109232045411
8,3,-0.03582441036382343,-0.011667578036569683,-0.02634938254839636,0.01789710306509256
8,4,0.00680356050672387,-0.03696917657017453,0.016144132600144995,-0.03601244914293508
8,5,-0.03573226261169633,-0.06125068082343467,-0.04147369146042401,-0.03179226827494586
8,6,-0.08093369752955407,-0.039213873223207144,-0.024070671773798662,0.0647564771372277
8,7,-0.03134142115456633,-0.023382257618700112,-0.009791053039876403,-0.0007757603572833701
8,8,-0.035345115383634856,-0.04926740801783086,0.013015631182482265,-0.0509360780722016
8,9,-0.024007037176703418,0.007202770145340019,0.006725644629409209,-0.008743645932468356
8,10,-0.03897043614805659,-0.05358611476874675,0.06348820792342975,-0.008138188363067426
8,11,0.014576120901564193,-0.050904347160024684,0.03319494220309543,0.020523020214459533
8,12,0.001175485049700911,-0.0270105611078996,0.014658677281578422,-0.03414454325428573
8,13,-0.03811711454310423,-0.03933385538933644,-0.01790077805806046,0.030429611782951626
9,0,0.0068704387400175615,0.049183529246279785,-0.036624171705842964,0.09001344763198389
9,1,0.012100972741290277,0.049944203940222344,-0.026370496856962525,0.03400442898512891
9,2,0.0052298233732521225,0.013640035637576507,-0.0013558851193073175,-0.007151732930022795
9,3,-0.02908246088932758,-0.004337094162861441,-0.07007035687871273,0.02438072369250208
9,4,0.002773895155512283,-0.056203848895257334,-0.04871654001728747,0.08433604341231447
9,5,0.10974763406818695,-0.013053234676724984,-0.011417118644584548,0.015730659436204428
9,6,-0.014262644676996419,-0.08641050117926226,-0.05983180994672463,-0.04823042647482284
9,7,-0.06158502679623819,-0.05450042936617799,-0.066926464129579,-0.01940937401702286
9,8,-0.009646301679289435,-0.049725068668763826,-0.02421476820137227,-0.03749785255359409
9,9,0.004660528313799582,-0.03488694761256015,-0.05503565593800669,0.05231233714660377
9,10,-0.06028924915811222,-0.019331813331427368,-0.022733202443138173,0.031189897257854683
9,11,-0.07502607682351967,-0.07555831934872231,-0.029675806638379758,-0.044229280804587066
9,12,0.033039109358398405,0.0190450659613242,-0.07678860468461016,0.07229738291212491
9,13,-0.03317021556766596,-0.08094463455648629,-0.08192321565904556,-0.0068489483412649795
10,0,0.05579300237190709,0.011742132989260553,-0.006499544916615117,-0.01784918051033099
10,1,-0.00827910585239223,-0.001144769539844325,-0.02310327112237332,0.0011937288553502282
10,2,0.02253091803014045,0.03174177266138742,-0.008827293803117675,-0.019595287953581043
10,3,0.03444766611215608,0.047522653958633976,0.0018307513538854717,-0.04381595287844034
10,4,-0.06214786428530791,0.04765365847976272,-0.0199660989597017,0.018722468759418374
10,5,-0.05501349225199068,0.06676584824750093,-0.02573712000639579,0.017400446681035908
10,6,-0.05401715432379377,-0.0446790622515072,-0.05594319457174406,-0.06153145507962505
10,7,0.0061373758005748924,0.00555835652155501,-0.005276785157843673,-0.014625233609395282
10,8,-0.005879616214886642,0.03265791923984296,0.001850070875895677,0.00786241180372796
10,9,-0.03458057593792647,0.022258288564226833,-0.024083012016075666,0.0025971701024981456
10,10,-0.022801187478620602,-0.03539608681026264,-0.03845750638600907,-0.03006827534302348
10,11,-0.018356584253554867,-0.030366334453128297,-0.03425340699628679,-0.02247960347887363
10,12,-0.009201926784375947,0.01976150047458075,-0.003556149239370297,0.019413193970388043
10,13,-0.03996136497474047,-0.010742420131834038,-0.017458036542218707,0.0018857955241575954
11,0,0.017726596065525294,-0.10598694775065454,-0.03751371211623178,0.04853635985173152
11,1,-0.020603344676808445,-0.05285827649111286,-0.05784809593902517,0.0423755525015419
11,2,-0.00686615917210153,-0.01652045153161414,0.0035173167091823096,-0.0012130933663787005
11,3,0.006327494721879172,-0.0020628329145457843,-0.018905085724628297,-0.0005697214508029509
11,4,-0.04265338733192074,0.0011064098489870684,0.004703994393035604,-0.022848855463705627
11,5,-0.03235348467622907,0.017343699611335917,-0.020812674189284508,-0.026488018486319043
11,6,0.02449777085109464,0.0952779247084311,0.031860174776238856,0.013357863266934928
11,7,0.004860685275529919,0.03630001947458114,-0.023420199098397994,-0.010687201968552775
11,8,0.0691356269528209,0.03825520264477262,0.04977619476655484,0.05695024055048782
11,9,0.030577440947259855,0.025108951360029653,0.049199426715089485,0.026706743336278697
11,10,0.04290268353785562,0.04768785152835811,0.04623432133318073,0.014110431094689452
11,11,-0.01647755080808679,0.01672289158930835,-0.07574569046407358,0.0029384351361652038
11,12,,,,
11,13,,,,
12,0,0.03904681640958552,-0.01846420322662922,-0.050351823463693275,-0.006981368682480555
12,1,0.0068775924252025104,-0.042084208748305596,-0.016491446999818922,-0.014475626499083233
12,2,0.00557370329622535,-0.03190662032577919,0.021985780709428287,0.018329750685993344
12,3,0.010992428170995794,-0.03561306333815918,-0.023151073022267998,-0.039118428131738735
12,4,-0.00710209401676815,-0.008446500066934995,-0.029535958421607444,-0.005402840384430077
12,5,-0.10217295783531777,-0.06698547281045154,-0.21145434330296,-0.06660949563730556
12,6,-0.01964508079580807,0.019830815837360974,-0.15728232521786895,-0.06367564465033708
12,7,-0.010474748840873446,-0.04931271180972205,-0.16219280260699034,-0.012964373881309037
12,8,0.01734676822095669,0.007649581018043578,0.004585875347537339,0.03328684578539593
12,9,0.03648770149846805,-0.019998215461721952,-0.02400083608388683,0.006059461096254512
12,10,,,,
12,11,,,,
12,12,,,,
12,13,,,,
13,0,-0.09319744283850384,-0.04692535504815797,-0.07790505203107102,-0.10231591335936718
13,1,-0.029177648267482925,-0.03073226081715933,-0.04099205964322169,-0.09573670644457796
13,2,-0.02210327047292794,-0.044958388667552696,-0.037651604789299645,0.022231545569662503
13,3,0.039403966875410174,-0.07259642012232242,-0.07373752839825057,-0.03263642816402053
13,4,0.1725312530362649,-0.2770734059779024,-0.011637940725312495,-0.012270753523238092
13,5,0.03726530612271842,-0.09969406066313907,-0.05392010615392235,-0.09220962735520215
13,6,-0.02694255488002774,-0.15260191669586717,-0.06209959900134428,-0.10296850301009661
13,7,0.031070440119535334,-0.059683703558574795,-0.0498454462867288,-0.1416998303109651
13,8,-0.026202377849578445,-0.0994611335400049,-0.0533151044536212,-0.041512188034372996
13,9,0.0258174911966402,0.0014777937960149291,-0.06569167828458837,-0.039824642797150776
13,10,-0.08917646905527911,-0.17212223726553105,-0.036394148534880544,-0.08847579827951894
13,11,-0.03764299423731919,-0.05536000974309488,0.005244249396617678,-0.011210907745569355
13,12,-0.0042532654405440335,-0.021474830678935464,-0.028603711506671327,0.007655565366803677
13,13,-0.009496470967187186,-0.04151088088815259,-0.06505225781557261,-0.059076238552381026
14,0,0.031591472877269815,-0.0042810964901730825,-0.04302688337947651,0.02181385317896984
14,1,0.04647260919811031,-0.003425269061347538,-0.01629489988703503,0.03415761790025976
14,2,0.013932276093914056,-0.016496655033644964,-0.024159275126062852,-0.011752454041274316
14,3,,,,
14,4,-0.01672901006821578,-0.051609518022749115,-0.014789428599614182,0.036068186919616656
14,5,0.014211201618070199,-0.020056811299777273,0.027132954990340793,-0.016022622462620498
14,6,-0.0065880881874073975,0.0001293788724331033,0.0023508801874374866,0.005420203572672796
14,7,-0.0184849474547362,-0.03193423353148459,-0.002601650501177619,-0.014775958029165238
14,8,-0.008817869304951752,-0.0025602036048273822,0.019693134888982142,0.015551156613460706
14,9,-0.023934472032718146,0.005207115719574784,0.017634827625746724,0.029487054688247496
14,10,-0.011227949076202512,-0.021538168882555265,-0.0031380490328430455,-0.005707115306445894
14,11,0.010377775973426689,-0.029266606093036194,-0.03474920260773196,0.00277316211118218
14,12,0.010314071460208376,-0.004926559287411281,-0.015553701338477744,0.0004227292357140879
14,13,0.008597540763987138,-0.011016115327793173,-0.013276261645552425,0.019996755768352248
15,0,0.0019702650523191253,-0.06061824680333738,-0.030189570987893415,-0.013505919766042151
15,1,0.029713392948926033,0.02962682865137997,0.034523279443389863,0.018011935461835243
15,2,-0.003050073172289225,0.0006532254698206013,0.022198339237698848,-0.011391923495426861
15,3,0.021777974247087523,-0.031428444914681684,0.024940204706969723,-0.02874495576863005
15,4,-0.012592219425590936,-0.038293929189908364,-0.06025752564605439,-0.01444150281800769
15,5,0.0988371740727964,-0.00329359703951797,-0.03112987546670869,-0.10528894167074249
15,6,-0.08898624436608256,-0.08046671535555837,0.017481822294762257,-0.06277248373274207
15,7,-0.05269614008327602,-0.0875432552790533,0.007544918665498333,-0.021832157119585683
15,8,0.02757077999948362,-0.017651776050622757,0.032042967566375875,-0.06386730597226215
15,9,0.02072715656355731,-0.10452016532006031,-0.03331529873954611,-0.09059609914180364
15,10,0.022835731641778323,-0.029792035053128274,0.04529664117926472,0.04942536242968027
15,11,0.02661312046453331,-0.008135357768919256,0.01198799514176135,-0.009690575272950808
15,12,0.01443413177684696,-0.044724288417729935,0.04791333084196279,0.021670155740741326
15,13,-0.07697240275275205,-0.023166776444465367,0.014526616302362615,-0.033770472176876
16,0,0.07954095658892506,0.06887163360236664,0.035406835931711414,-0.03544219953463628
16,1,0.0779623781057524,0.040004030777791466,0.020215780635131977,0.07712998003591896
16,2,0.05368974547110454,0.050533180265096594,0.029521556215480544,0.0012532262003395488
16,3,-0.036198255116861755,0.06351151834707987,-0.03339171043766012,-0.06288747902298575
16,4,0.0722431067654581,0.08297653471652428,-0.0032051869704283055,0.05150233663953607
16,5,0.012184613342696929,0.067020449872609,0.01310595475851866,0.015304138241176966
16,6,-0.008426011536890722,-0.04161794543877939,0.08798083137993935,0.14614945415153616
16,7,0.0013034749047041534,-0.07983330615984106,0.07371436975964515,0.07139207239732434
16,8,-0.016380776466907387,0.03829528403637388,0.01416334580159308,0.015368646947421573
16,9,0.004769045594136809,-0.005279517029454651,0.011290254142653767,-0.0026768625162427616
16,10,-0.050534137311167696,0.0095680185784112,0.09994124743742852,0.06608178606138819
16,11,-0.19539991756420683,0.2416756253691541,-0.04864178075827808,-0.08210318017896175
16,12,,,,
16,13,,,,
17,0,0.045028837487759425,0.01521460229946595,0.04661021221515014,0.08743845569080273
17,1,-0.04715342228193312,0.087216785088425,0.024484068738292643,0.029512319227719325
17,2,-0.015140096470905251,0.006387103804510453,-0.01629963459713487,0.029234951914752547
17,3,-0.08961853449074941,0.04416600328788455,0.020641298444465966,0.056770561548946274
17,4,-0.14315375995441784,0.05719543049245567,0.040113938874270984,0.059735852902986754
17,5,-0.027646762191965994,0.04780056355227305,-0.011707255888876413,0.034671904291256585
17,6,-0.2509950207186193,-0.09338333192448108,-0.001049506918612516,-0.21773300383933464
17,7,-0.2179922399520637,-0.04508071837883361,-0.018865794949920658,-0.1261298656101495
17,8,-0.07856826114860968,0.0020126547854370557,0.026924300297974425,-0.0879227642637102
17,9,-0.08350166708305715,-0.0022286964397905088,-0.010463945462793028,-0.030925446328189252
17,10,-0.040495804309365405,-0.049625112625783493,0.1441504120762638,0.009654210359853905
17,11,-0.03092115751210817,-0.0542321286384743,0.0679630571898834,-0.0387465330664718
17,12,0.01230248782625967,-0.07468692381730124,0.1107060078853666,0.011161134727826164
17,13,-0.029313246580297124,0.03263530073649547,0.10015306568739502,-0.005876561142411267
18,0,0.01183539427358139,-0.009949805299052462,0.008679351444817896,-0.027264729976972928
18,1,0.02669027904490124,-0.05430750014985387,0.03512693984107116,-0.0031532650998351906
18,2,0.024011840106156524,-0.04054592021709099,-0.028590234007770374,-0.008335737853578053
18,3,0.009314986954191088,-0.034368652168277745,0.02390335834368349,0.029115170249369257
18,4,-0.07230512443033268,-0.03570266824326506,0.0048481753613543645,0.02041927962795909
18,5,-0.03239390677185019,-0.018016709274129444,-0.039168964017803606,-0.021725417519795134
18,6,0.02771039523741913,-0.018512552094579835,0.02007839804148666,-0.04039307611951404
18,7,-0.01241489681345874,0.008749271701335121,0.009948131102732885,-0.04590241957219991
18,8,-0.02249516992068752,6.14007754846828e-06,0.021369786380792427,-0.010218890072997006
18,9,-0.01488860742417076,0.0004808521560868776,0.009453574172416124,-0.028133845997982847
18,10,0.034307294803820984,0.040262383599229325,0.027847613347089108,-0.018473577985385868
18,11,0.02353486903505118,-0.011763025499689826,-0.014276088682071109,-0.025012591869129082
18,12,0.02535983905899466,0.03495719081065619,0.05776500698508199,-0.012791160525126343
18,13,0.007654650209352245,-0.009666544427092059,0.008797341606846865,-0.01610618689475582
19,0,-0.01110419746262987,-0.015620952161005936,-0.0009481169878666386,0.05432246581063807
19,1,0.02055538787190846,0.009484502493961749,0.003332835285750741,0.0536498119763476
19,2,-0.02618950343785648,-0.010570855033015636,-0.0005413292740201093,-0.011926276209749839
19,3,-0.007462999134567577,-0.012242682765692414,0.012068231968801796,0.025820850887206693
19,4,-0.004029470253430422,0.020091683157151357,-0.048623469261777824,-0.06513426899174024
19,5,0.011603623974753943,0.0132836972744964,-0.012935323624165959,0.004218782690133174
19,6,-0.07837814771968886,-0.14612787589310056,-0.043975111652218256,-0.06535246506108053
19,7,-0.05388322477315638,-0.07856436287275606,-0.042148284890978674,-0.06385795335231227
19,8,-0.024991531140498142,-0.013101800435184822,-0.015983492251444614,-0.018230210045692474
19,9,0.009943405708452731,0.01873677966727066,0.01137457028920167,-0.005786019491362149
19,10,,,,
19,11,,,,
19,12,,,,
19,13,,,,
20,0,0.060964083774509126,0.020782575731274282,0.0006396786671360071,0.012150363576637515
20,1,0.036429066490866024,0.01659211182421768,0.03083612466775088,-0.011927541023190344
20,2,0.01218335576861077,-0.01042028165208911,0.013730961201662905,-0.004247354972019451
20,3,,,,
20,4,0.05647617618485564,-0.013846322041445404,0.013561564374639444,-0.048916543988120495
20,5,0.009911147430711495,-0.0006462828691395797,-0.04999835965400939,0.0010878118597457188
20,6,-0.006682903059843559,-0.02370330011440855,-0.06893558332628948,-0.017387081424616424
20,7,0.006334585265545583,-0.012528981474425608,-0.005416560127555402,0.025839719200742912
20,8,0.02767177489648001,0.03556663955815558,0.005223261705510893,-0.005808332307648535
20,9,0.01081109009693388,0.021731578220796764,0.02502723994293631,0.0012632946952998115
20,10,,,,
20,11,,,,
20,12,-0.05294218600582982,0.032079833276026,-0.09009195328581693,0.059602528763292216
20,13,-0.010246873702310174,-0.012241112275304267,-0.025230910849479017,-0.002311412144721681
21,0,-0.01207059512130231,0.013770433524025173,0.0021462034713475363,-0.009065924389484437
21,1,0.01041327956870543,-0.007760075686441174,0.012531876918373552,0.023251292626298464
21,2,-0.003104779956947454,-0.0006899595580417893,0.0012740007284209908,-0.029657180808084552
21,3,0.0038794396907454623,-0.03543095083461466,-0.012598059164251354,-0.007089337418339121
21,4,-0.06726261099997982,-0.0052165791839993555,-0.011386426615481775,-0.014521577735126055
21,5,-0.04244725316819544,-0.013826395396726608,-0.009397068598793879,-0.003704902194085923
21,6,0.026363769989373037,-0.005591813980369445,-0.029395029761933745,0.18877639596800236
21,7,,,,
21,8,0.009404834218927207,0.04390410115482815,0.012027657512834737,0.024809614142379147
21,9,,,,
21,10,,,,
21,11,0.07420989785502705,0.023269447580027733,-0.1368115016741469,0.3247735441562822
21,12,,,,
21,13,0.04669623520223868,0.024268802953817146,0.016443314503214925,0.12049904769369608
22,0,0.01661221534535568,0.018968100885414108,0.007893865279468653,0.04050174452203106
22,1,-0.01695212292993442,-0.024954571765536414,-0.014426827193901159,0.03116644286601331
22,2,-0.010457473207754158,0.014679539454503863,0.013085637324984868,0.00514889361354794
22,3,,,,
22,4,-0.04837426904366596,-0.03852382350506404,-0.016105964784022164,-0.037513148773885834
22,5,-0.017280966732575138,-0.01298632375596661,0.02147380911223963,-0.00809999835034522
22,6,-0.052289967894289496,-0.031883617498705864,-0.057498354348476007,-0.005992490244189153
22,7,,,,
22,8,-0.038151019674659156,-0.038945450664143226,-0.048160843236787675,-0.024656628926107888
22,9,,,,
22,10,,,,
22,11,,,,
22,12,,,,
22,13,,,,
23,0,-0.2907849818613987,-0.06483333817598741,0.08702955851460992,-0.05885629447233798
23,1,,,,
23,2,,,,
23,3,0.01247209335888641,-0.006817671182031051,0.03232742299796972,-0.005043386104193566
23,4,,,,
23,5,-0.09206793231714953,0.06432219004904442,0.13649227894003405,0.008991047774553482
23,6,-0.02518501911311845,-0.0032664679621387262,-0.038220185756904765,0.050214860267881786
23,7,0.015952195975726564,-0.005329235649007489,0.05541766711627578,0.03635209105339872
23,8,0.02763427303436404,0.026180929968746477,-0.0238461116786182,-0.0015667511479518215
23,9,-0.026720973089232273,-0.013633725941859668,0.03782791507226485,0.024874346497967312
23,10,,,,
23,11,,,,
23,12,,,,
23,13,,,,
24,0,-0.0880272582326855,-0.1045029727774605,0.006945689915021874,0.10539289259408433
24,1,,,,
24,2,0.05598300927776996,-0.039369074986767456,0.1276148650377069,-0.07439642954908196
24,3,0.006552348400781026,-0.03937005704227594,0.01145542715382498,-0.01611604486127855
24,4,,,,
24,5,0.013947415055379442,-0.17872103215242202,0.10298045950839257,-0.0567706806007511
24,6,-0.022145365746814184,-0.0330946843902231,-0.05587955909441766,-0.11594454240659816
24,7,0.006452355001998586,-0.006356673823982471,-0.009240934659503052,-0.03992332412950262
24,8,,,,
24,9,,,,
24,10,,,,
24,11,,,,
24,12,,,,
24,13,,,,
25,0,-0.061834742177596144,-0.02210587286274321,-0.05539807327847107,-0.21817483015740308
25,1,-0.003252655438463943,0.003105115910213976,-0.05659893244733012,-0.12075516922468703
25,2,,,,
25,3,-0.006153622049624643,0.0087887352730573,0.025223699335093618,-0.006855323620513695
25,4,,,,
25,5,-0.13872975579999022,0.15989623592838034,-0.08591619455988438,-0.11405337975813927
25,6,-0.036250387594095115,0.04387691477110591,0.03323208873034545,-0.14735351625709742
25,7,-0.017706095460139838,0.03810128928676741,-0.019151658272715925,-0.13500786896054384
25,8,0.022069719172532073,-0.02350232243125726,0.008288615229929639,-0.05324624338752656
25,9,-0.038441871362978344,0.09735951700496132,-0.04159013005514287,-0.053320644476389886
25,10,-0.03999192204804397,0.08644742646488396,-0.03062929515083527,-0.046862724497582116
25,11,-0.05526708373695412,0.0598075021724029,-0.024974023440948012,-0.0664574877203407
25,12,0.057966868099768615,0.07399307299272766,1.5210825921351513e-05,0.0165476547930161
25,13,-0.002714477913216033,-0.007500035495040493,-0.009995553645268522,0.011220191659033658
26,0,0.027203453979249562,-0.08654048872207819,-0.012173267614422901,0.010841977723281881
26,1,0.008583459663609514,-0.035163953017826856,-0.021705710454587863,0.0010119329625840493
26,2,-0.02284558521441198,-0.06891675686535062,-0.01392261020756586,0.0064523082200104625
26,3,0.0016462876200747387,-0.01200034378119818,-0.010101797761108868,0.0037376504288477845
26,4,-0.04502151103292459,-0.06233071126396783,-0.004958311021662905,-0.036276615679027256
26,5,-0.04858116819935323,-0.05854267684412566,-0.021840894930599524,0.002789972299628379
26,6,-0.0878259710583571,-0.09920425509879904,-0.12477147989533592,-0.04113205712221419
26,7,-0.03977329941308063,-0.08167606402467119,-0.08428290717518072,-0.0317834525555003
26,8,0.0027013120425726815,-0.03529671886606178,-0.06300073488450593,-0.0038468829820922255
26,9,0.0160495480239906,-0.008201226048219388,-0.02505101583073779,0.007403066761891556
26,10,-0.07259280395293559,-0.1687412270276297,-0.10733491419826095,-0.09169754189957745
26,11,-0.14613322045419969,-0.14666386067527815,-0.14989809092295406,-0.12106223545210994
26,12,,,,
26,13,,,,
27,0,-0.011528845638739633,-0.03084200531275733,-0.04460441881590585,-0.029176782360973045
27,1,-0.009286801368398713,-0.025200625700125944,-0.02524655970234449,-0.015107955037213246
27,2,-0.006639714015171503,-0.011104944959056071,-0.017722210327903335,-0.01234357134094282
27,3,-0.0027076892176271174,-0.01363211306256033,-0.020176295351435204,-0.015803937531530827
27,4,-0.02823238282292641,-0.030567341292667183,-0.024668967012677713,-0.0424078347697088
27,5,-0.010375525928701652,-0.03203014110524653,0.03854888771856643,0.0017264306439117565
27,6,-0.006710640665767394,0.014155274736808152,0.05494815502849775,-0.002993071729382013
27,7,0.015291416122966276,0.0031537340919934745,0.08223147158931068,0.030474485064131102
27,8,-0.01908755700194964,-0.002886946320420237,0.014427832647791227,0.009807851884943696
27,9,-0.016418351369945485,-0.009117940494027687,0.02431429409716281,0.01135226581190047
27,10,0.014247979177382826,0.023105666457646293,0.06445318289778165,-0.011834843663152671
27,11,-0.00416689814247005,-0.003167021303743116,0.04026058219539717,-0.0002704180987708535
27,12,0.009686522044591885,0.028168237624560704,0.06882534235122027,-0.02792746213378109
27,13,-0.0021854938600255713,0.0033743063033752005,0.03125531055695902,0.0015114615182845754
28,0,0.005607993289342057,-0.0027124217247954567,-0.019235482813409217,-0.0018476222887001592
28,1,-0.0032369041845001626,-0.015399813130276788,-0.038314225224132144,-0.028729227483034265
28,2,0.005253883748011529,-0.0002636084674489634,-0.013021633269073529,0.0008034768599398347
28,3,0.002208798049227801,-0.0013766486177659775,-0.008866429573986772,0.006987052614553075
28,4,0.012337385153535498,0.010351905355829694,0.0009226844265295272,0.0009300440029816392
28,5,0.006327489933903824,-0.004619979264507406,-0.009427123701411747,0.0032670781279758015
28,6,,,,
28,7,,,,
28,8,,,,
28,9,,,,
28,10,,,,
28,11,-0.01467231251179186,-0.05186443597074621,0.007493157071869833,-0.023633155221149827
28,12,,,,
28,13,,,,
29,0,0.0005505080146002047,-0.03397229348098874,0.03459383693370023,0.02545416315979374
29,1,0.006600706195995209,-0.007810029980886027,0.02534419240594855,-0.007118900521355215
29,2,0.01278652752208022,0.03656385478601944,-0.03339807122490357,0.04933992914296075
29,3,0.025395561535873187,0.032593519924227085,-0.008690119835222434,0.04783538737868298
29,4,,,,
29,5,-0.007135063477552629,-0.060358063269794024,0.04720866563558041,0.02391583869077705
29,6,-0.011357045473286309,-0.023508305760484415,-0.002854429445134797,-0.03244653695718976
29,7,0.0006817918641666092,-0.0029977852012245836,-0.00788768093611558,-0.002041883293268153
29,8,,,,
29,9,,,,
29,10,-0.0035334131881805614,0.002440379613394224,-0.0030735189737724064,0.015014749765072976
29,11,0.005322692977300783,0.004079273670420345,0.016032397079080354,0.015864939514828504
29,12,0.0032844168143417204,0.0010971237856158584,0.0025191981558069392,-0.002234659567284925
29,13,-0.0022045904117308753,-0.14165906239901346,0.001472292569794087,0.05509073711013065
