S,Channel,0,1,2,3
0,0,0.04994664243923633,0.07754837052030902,0.09873283827912972,0.023536818332122712
0,1,0.039126932515396166,-0.007412856339368402,0.07141004355337799,0.019268183602757855
0,2,0.007967396238347971,0.03712875885759599,0.21757634430935183,-0.029399585177523516
0,3,0.019195577950344718,0.19628543092607006,0.13100612259251743,0.07468031335363236
0,4,0.13415416828823096,0.18371208334300387,0.24834001849433962,0.16137104401002905
0,5,0.21502809344151155,0.050316107362086325,0.2552741843617413,0.11865414985214663
0,6,-0.06876632076252377,0.15678126232159315,-0.05360572911988857,0.05442130177176326
0,7,0.11239304027221306,0.1913427378624231,0.13586076445705106,0.20419499971991487
0,8,0.03554154547350092,0.10803505632090563,0.050969293571573045,0.10543553130693895
0,9,0.3137598463903044,0.1979255172484336,0.22784394199588104,0.23738873812771819
0,10,0.0025004507410229825,0.1713310477965777,0.042809839921627936,0.13826184951582077
0,11,-0.1663312972404173,0.10552813232176494,-0.00764775816165365,0.0871877810310341
0,12,0.04177985345863303,0.19858547161389709,0.05903171644574275,0.04534186114456481
0,13,0.00013761936400453415,0.2116261716487616,0.13771933862919433,0.0029205854214138273
1,0,0.12024687130271415,0.04185482299224132,-0.032592356732455155,-0.038508592024257216
1,1,-0.07147769345581866,-0.14464597112811006,-0.055535508568940455,-0.12053107731037217
1,2,0.030502622371052602,-0.041066971969471504,-0.11114737788597995,-0.14133932605218733
1,3,-0.023047417966218106,-0.00853409275539309,-0.08677558522925563,-0.06974706445031245
1,4,0.1473383712040772,0.11527607520666033,0.15676901475862556,0.056187808105921735
1,5,-0.08690117874604822,0.0025465651704676398,0.07884119343287893,-0.08069734379574896
1,6,-0.04550858109317143,0.17345956688250722,-0.045950228260697605,-0.27581311739766534
1,7,-0.0315975492112406,0.09872814984805402,0.004565045036073427,-0.0669528452457836
1,8,0.061943579285104605,0.19348264803852724,0.06647123903541574,0.03703548490400556
1,9,-0.04935176721181204,0.15860853249746504,0.06910472507177964,-0.09752665178598882
1,10,-0.16055184658881988,-0.20956569459155114,-0.08730846079291774,-0.3408287503828657
1,11,-0.06587295354180527,-0.2754508120461907,-0.32948634045122616,-0.4127706951767104
1,12,-0.1565877980221373,-0.25176411591273723,-0.1591249281987754,-0.2499472403494848
1,13,-0.08290806980196311,-0.17874957097039781,-0.24243989372371663,-0.21457728885782806
2,0,0.092711977810055,0.022838170697890934,0.041688671948018695,0.05159532453470197
2,1,0.2341369121296543,0.14855043066780793,0.12388108188421715,0.05806528667273137
2,2,0.16239295543838744,0.09434954260696267,0.08031978293990875,0.05941219967803944
2,3,0.19897115851793173,0.0701487595816143,0.1497112338917877,0.10615032556945958
2,4,0.3198524609029425,0.10287224189186549,0.28127874868478453,0.26580157656153164
2,5,0.1513163701224786,0.05197205059733265,0.16096981210478856,0.12056182257981352
2,6,-0.08034890259587345,0.13004531049758308,0.14649022647390283,-0.04360750921337256
2,7,-0.04557418163278533,0.15990475989509315,0.23351138109067104,0.029563615344531537
2,8,-0.03958015924481279,0.10254264241911715,0.17958010352163484,-0.017194035422062912
2,9,-0.06666770128926428,0.033037515849676805,0.3019144395905567,0.1027122539813532
2,10,0.09218958333659338,0.2626394902591325,0.3544814844629718,0.14301224894017364
2,11,-0.08917097772308091,-0.020318180733850767,0.22463684323084687,-0.06369280848494409
2,12,,,,
2,13,-0.11099267460446889,-0.14703245102917917,0.23420306367076493,-0.2599659671951944
3,0,0.011909096224000852,0.008630291141502433,0.03150604521318884,0.03837004229917488
3,1,0.013292497399226619,0.07074613951998752,0.033032850313964114,-0.0042580365418646154
3,2,0.028544716992092385,0.10030810559439024,-0.05916037186457148,-0.005944209687430784
3,3,-0.004201156368124107,0.06266464798406254,-0.010798463795852743,-0.01653199352291653
3,4,0.1263570115314098,0.09994530243909397,-0.04481284951568694,0.11106067866236499
3,5,0.10052618800239953,0.05649231874713301,0.002472662447272214,0.00545726083205992
3,6,,,,
3,7,,,,
3,8,0.02178583605303199,0.11417470489088752,0.047065699769155915,0.11651700207531443
3,9,0.15384102861443946,0.17951483089332587,0.042011342833121405,0.2089827104734551
3,10,0.05057717940669368,0.0865285289158622,-0.09989559644088386,-0.03216544606234102
3,11,0.10449152838932801,0.011434281709505905,-0.0709250920280273,-0.10690002750916718
3,12,,,,
3,13,,,,
4,0,-0.05031161650626765,-0.01242191342221606,0.05298905754717865,-0.057358236726061336
4,1,0.13657657347172558,-0.023123943592091165,-0.04782109578854832,0.1485472160769525
4,2,0.06008509095389415,-0.009661077694311826,0.09523406608174688,0.030863525860378382
4,3,0.08632514154786863,0.020080758061056345,0.11599373738175886,0.05683673430976463
4,4,0.086193929229656,-0.0009725364392748165,0.09838046862614322,0.10968527479208283
4,5,0.08765442289266669,0.04367730134241769,0.06742641766141017,0.10992052206597161
4,6,-0.03458880737333614,0.18430959442357353,0.11785391936605051,-0.0249858087589207
4,7,0.007684950726944781,0.0918037777123437,0.06812061159569852,0.06313189002829817
4,8,-0.02838184797547081,0.023006083935040375,0.06294196482045283,-0.025842843425177345
4,9,0.03786649107557608,0.04550406996577545,0.12595276158011526,0.10700569685417792
4,10,-0.006354136100832876,0.08841452457750605,0.06475860810716098,-0.012653228662081822
4,11,0.08495807300288916,0.15916840277225885,0.1024698183593933,0.02682859940656952
4,12,,,,
4,13,,,,
5,0,0.11763349328546795,-0.02699803484690066,0.016324743664152618,0.031806586386192714
5,1,0.08878284276604663,0.09044403381757965,-0.03621823491992155,0.06311150912119967
5,2,0.0352340377987444,-0.024077005573742323,-0.043790185063578124,0.014517625349384741
5,3,0.07685614104064233,0.04381244247789207,-0.13685904152232897,0.1218089435080341
5,4,0.2681600560254603,-0.038336712652331684,0.006078902971983946,0.09106389077579995
5,5,0.15345361538719526,0.05332048355786145,0.10163557793112228,0.033248317382383916
5,6,,,,
5,7,-0.04088135006647496,0.011262834163192521,-0.18508085440506233,-0.000645902689331789
5,8,0.04699008809376997,-0.04928907743600044,-0.11791047295590511,0.0036209651186950736
5,9,0.1108163789926557,0.03466806219594213,-0.1526106983219694,0.01318011115880632
5,10,-0.08393675917283382,0.003965089780588722,0.0330167023516127,-0.05414798690254329
5,11,-0.04082135051093265,0.0072008106878094,-0.09176194929225574,0.0004254355882406822
5,12,0.0894696044888656,0.049592793877959104,-0.07407949293303275,0.029138048497355677
5,13,0.016480764837360183,0.053368640483122884,-0.11936068060520447,0.08167068643699783
6,0,0.09743536902807477,0.09781981631935112,0.030364195156956656,0.058342603405000054
6,1,0.05899997193679505,-0.015282921290024013,0.020371542366516903,0.023961630712432035
6,2,0.10958853695801754,0.07050522707154774,0.06363131677185609,0.05457938043552437
6,3,0.08863342480554938,-0.00665473436528987,0.023395814707580436,0.034384516586902863
6,4,0.18988359119360626,0.053871687807962365,0.013671939921276808,0.12412731715269072
6,5,0.09564297920480597,0.07792578063841404,-0.008235286373642577,0.10054815080269607
6,6,0.018772724837917486,0.1207517986795093,0.022274136507756708,0.05121487448550669
6,7,0.06522710041237428,0.07998698963934886,0.04968610978738334,0.005105056383349945
6,8,0.08837502410944445,0.05831319006632471,0.022058606579322414,0.0657072327605451
6,9,0.07656685188477899,0.06103570900199282,0.07308031146202791,0.0071599069428362125
6,10,0.1825685916890521,0.12950623608791334,0.07423735338732927,0.10347689803676377
6,11,0.1426443751250079,0.1454430272716241,0.16991020572880944,0.16904635862153305
6,12,,,,
6,13,,,,
7,0,0.1274285751924582,0.18982760074924912,0.036276301027709686,0.10991240460552729
7,1,0.0072179460708000475,0.04101927178689967,-0.043505773355536036,-0.010579136085640853
7,2,0.009000402167513858,0.046136328415485046,-0.07474152175345991,0.00890095677483845
7,3,-0.01637197525644086,0.08602656419731981,-0.11741882010836693,0.007852310559133399
7,4,0.08764821424901646,0.114934080749568,-0.01208957518189758,0.03331898961138285
7,5,0.06595361014107111,0.03979929196395582,-0.08671111393784296,-0.07826931255353928
7,6,0.037286296143962915,-0.0874074745662919,-0.20116698265241206,-0.3736728915775126
7,7,0.1171795480299731,0.043547462067364394,-0.14852645844727388,-0.21318348407786086
7,8,0.09708870869214617,0.007267172958445912,-0.10221020979273984,-0.22104357585564577
7,9,0.230370546914767,0.13747308811168882,-0.08077588092862208,-0.28770727957922065
7,10,0.17396718468422692,0.24338609028034505,0.16234774834565474,0.11602573460883125
7,11,0.16616531750934227,0.18535014826584423,0.2208827963423945,0.1458643090515049
7,12,0.10899983379445342,0.1873417211859199,0.011058472965373017,0.14326937542154838
7,13,0.11110055423698444,0.09137386293277726,0.06795872729681776,0.017191666014497398
8,0,0.45598027984106165,0.3166569895748231,0.16668386924107964,0.01479399214285245
8,1,0.5235697226699951,0.2069951425946665,0.10549572200887013,0.002734858724693965
8,2,0.10035315388222085,0.08364080171218144,0.07449710036575406,-0.11673134279265984
8,3,0.23851237618994361,0.13849978556809053,0.08742888608526737,-0.08353050928085061
8,4,0.509452651399034,0.14100574761016174,0.2082379197105913,0.041187587155921704
8,5,0.10275823700132859,0.2596608944431264,0.2836279288870983,0.26095597313909263
8,6,0.1919318560625555,0.11686501997658538,0.1949740242183142,0.07840514339101932
8,7,0.2019648698826567,0.11892976752196271,0.07739178228550042,-0.029476554149187612
8,8,0.14725257893391505,0.1754091212003572,0.11043062699880506,0.04900311405343612
8,9,0.220153987774105,0.1786308853112579,0.09416168015747287,0.01425589612115173
8,10,0.2923597632855281,0.06962599926131215,0.2574906281718359,0.09037874371169222
8,11,0.23543639489058296,0.12209334748683212,0.3912176073816067,0.08095346567268628
8,12,0.360678511744953,0.09681518334043368,0.29639119950713794,0.14359396427721052
8,13,0.15300358344629486,0.05156332572778935,0.17395435990908448,0.03463597558438171
9,0,-0.025386196257359512,-0.011465397232481111,0.10197661591723922,-0.051872759594548186
9,1,-0.037400224341910836,-0.06286340275795342,0.062364111929818014,-0.05355806736209835
9,2,0.06695792042152185,-0.03280975929725751,0.05809253499989437,0.05013661279896165
9,3,0.06104957849329857,-0.034789926505199686,0.06131422943092079,0.02119399764866211
9,4,-0.11702874882015549,-0.004288952947014213,0.059133889237731774,-0.20952805557628656
9,5,-0.02866460379330389,0.09938337175320477,-0.09220823540589738,0.007273949854011137
9,6,-0.01006907229015338,0.11819376953141762,0.10835226403857161,0.16809262845166253
9,7,0.07955368511078416,0.09578786642510036,0.11546849722769094,0.10236532384866485
9,8,0.014016718706222665,0.0509327638597025,0.09448219089706296,0.04921513574723654
9,9,0.06432439213047252,0.07814813624435613,0.08939382609340388,-0.025621457355066685
9,10,0.012271263333847565,-0.023070547338823546,0.03320000755488268,0.007183945049704769
9,11,-0.1321769522750353,-0.16985418907251743,0.012728479269514823,0.046440226024206145
9,12,0.014864915559915958,0.012496901116743847,0.06969378982001612,-0.023240539594680847
9,13,0.030193740269475113,0.0703814511788137,0.09223261532409706,0.1552980736713455
10,0,0.0604925108499159,-0.04126737652934621,-0.019848345495260617,0.09721433863986777
10,1,-0.011629531805623625,0.006287295130687004,-0.045755549438442844,0.14100972154666389
10,2,0.1007693756828542,-0.16462055248880508,-0.04749305320642759,0.06905834731516065
10,3,-0.014692204152752662,-0.0015108353111814474,-0.03104779729124864,0.15799490785899423
10,4,0.07762939561181378,0.022865007578299037,0.017332885750655818,0.10793630455131337
10,5,0.031101456272607988,-0.06861561437859082,-0.010999827493579584,-0.030797642078832135
10,6,0.21761147649684934,0.10693626693569477,0.21693643452905986,0.13893803471771474
10,7,0.08731944916285694,0.06769545496806252,0.06612368513797429,0.06938232405452852
10,8,0.048683053863720537,-0.02998469792549577,0.0031698808736177757,0.0011746144160499333
10,9,0.06772689206743533,-0.026091251551687407,0.07091394497942222,0.08312039238190932
10,10,0.10936201563572609,0.0829889077302474,0.08975378210641537,0.08789240180759354
10,11,0.050726737260744705,-0.05232716184343385,-0.03961886350851116,-0.050980306799514104
10,12,0.05520503565225368,-0.03984831887064636,-0.056006236297996524,-0.037657712763522075
10,13,0.09339297133544487,-0.07296553761972381,-0.07665137624278304,0.057231978471843054
11,0,0.16972992745387333,0.11789396099538639,0.06935065019207519,0.06800440869486753
11,1,0.1440267646157555,0.044539276069141764,0.14719484954555,-0.006767282807301097
11,2,0.17211421443137526,0.026809394862639155,0.19253850048774476,0.198682753523469
11,3,0.17847918276628227,-0.06558120429225778,0.2429159557059932,0.22048700192749549
11,4,0.1977039087066136,-0.0736362092733682,0.18929742742150818,0.2593854525992694
11,5,0.14776674905030704,-0.008715728232688427,0.14127826561086962,-0.029723661281009187
11,6,0.5003104444126336,0.3215712437427466,0.4842872606487309,0.4116303130366958
11,7,0.2766150161698111,0.14456606383303286,0.23053822638367144,0.3186186079932031
11,8,0.2439330402402219,0.036997513976950114,0.37377545225435527,0.3877594973640834
11,9,0.21246786263193226,-0.04289111369946064,0.2884210935356395,0.45139235785853304
11,10,0.30968591020481223,-0.18675810732840198,0.2516568762881504,0.1623516043445448
11,11,0.1789688398259595,-0.20271973673243104,0.05307632209489258,-0.04948272881093276
11,12,,,,
11,13,,,,
12,0,-0.12015467533926392,-0.2418902234817682,0.00654923998806796,-0.2703202948612491
12,1,-0.05638943841123229,-0.017019675640883445,-0.07083495236304602,-0.07447465679234648
12,2,-0.11973292481985631,-0.010315211156025255,0.0062354277872047345,-0.11468469955556705
12,3,-0.1072763862112827,-0.1005916616842657,0.007141902469334773,-0.1856746210754481
12,4,0.04189649145374374,-0.05124665923479047,0.0024456215204965966,-0.14363108138616956
12,5,-0.4912093053374127,-0.1301814034458475,-0.11192105797249197,-0.41593709769078285
12,6,0.18507516527910245,-0.033919539773549424,0.1594589383392608,-0.10977268612167511
12,7,0.0633958047893785,0.010420985270498284,0.1850354353957283,-0.014600350316084802
12,8,-0.15013743514107736,-0.0864894958323906,-0.04303719111463456,-0.0606483837612737
12,9,-0.0239184091386675,-0.0670852188825399,-0.0021492262223228873,0.04101659591484868
12,10,,,,
12,11,,,,
12,12,,,,
12,13,,,,
13,0,-0.025293590312332713,0.3463209281527245,0.00010236327773186078,0.019091499422643047
13,1,-0.022622238945740655,0.27817119832181153,0.003169277311198416,-0.017573692003677064
13,2,0.09179226100771648,0.2916619871318258,0.030696408890976107,0.05157916187795812
13,3,0.12652227120866763,0.21728866201713684,0.2197251072286304,0.058576326030620046
13,4,0.13168179542460354,0.3720317784582471,0.12006186580568269,-0.002136981986625766
13,5,-0.018346667896513458,0.28486552710946567,0.10338785180926334,0.14862727613174073
13,6,-0.0055301374832863485,0.03757847796546821,-0.13528558203972604,0.02351827584647459
13,7,-0.022319125668167652,-0.03274934680571562,-0.04244634142738823,-0.2017924249312538
13,8,0.11778214323457253,0.34393414820255075,0.007607717333989137,-0.09216332287306847
13,9,0.03665055579733606,0.277678322518472,0.017985215190111193,0.10475463164545311
13,10,0.10445366507087595,0.09009059912989431,0.1200988677275649,-0.03379198819194446
13,11,0.08271872119976804,0.2318041781479548,0.01694452408952946,0.03296822982557326
13,12,0.04759088699103588,0.2965057184827095,0.011108804354209838,-0.019091863386770772
13,13,0.18449723932769513,0.17360975500798087,-0.07863573940502894,-0.2773559088983168
14,0,-0.02585909425960639,0.03104451400837105,0.008604070871423269,-0.060834367442022176
14,1,-0.08616668919787344,-0.03252005175582578,-0.052531070570672966,-0.10411017352609174
14,2,-0.05795606394645889,-0.013642717915030122,-0.009291400817591704,-0.007150947764831141
14,3,,,,
14,4,0.13623948660443322,0.049090355048744046,0.00011872778781511538,-0.07073393080405502
14,5,0.0028553151472359892,0.03270332059558828,-0.07985022725017411,0.01147744350433868
14,6,-0.02087651334733161,-0.04026111809165021,0.028366429768171216,-0.003719433047243911
14,7,0.029772242415063592,0.016132135797878772,-0.005914693045592408,0.03289247773515528
14,8,-0.031674978471386755,0.025118162688141925,0.04377519862144955,-0.03550528340178017
14,9,-0.0009037838748694366,-0.014054571324099364,0.02349534487940655,-0.013374434189372609
14,10,-0.01502297092119993,0.02023638778215279,0.008639232122271521,-0.07170014265483297
14,11,-0.05928761528465224,0.028304781124514785,-0.0599426961258038,-0.049617623070633776
14,12,0.013584648102152205,0.09679438291258712,0.05272987470068173,0.002402998628152887
14,13,-0.021642334771986925,0.04136173247486689,-0.04180011909877186,-0.004062780176367028
15,0,0.06298685362715606,0.2025281379317645,0.10363381630163053,0.12390852314099816
15,1,-0.1625079124032538,0.028870314690661748,-0.00444592586389463,-0.04049178294961285
15,2,-0.05152909064173242,0.035567059697267284,0.005776354136309973,-0.00410316413172129
15,3,0.026583023200438392,0.10571694676763178,-0.025236217926207574,0.048455516693995795
15,4,-0.07047601545987825,0.13961894638053746,0.10385098466142738,0.04701905562727718
15,5,0.04855275820607448,0.14974648137181493,0.07419659653716493,0.18186492358268613
15,6,0.030260973309285902,0.10152246993391634,0.09253437825238511,0.34071743180196506
15,7,0.13436233809020784,0.0365872881876043,0.15634503038067554,0.2111754665430252
15,8,-0.05747768179159193,0.14582671926499874,0.0007206201985613853,0.12730499802530976
15,9,0.04962931194270173,0.2255951303119151,0.11888387415004839,0.2006787835389016
15,10,-0.07503129123828295,-0.20339611121180967,0.023974440748220728,0.03409489585096517
15,11,0.015232441508776076,-0.21042264791161833,0.03669246804421632,0.15571531869790362
15,12,-0.03546787443678934,-0.018409456858587657,0.08455243108289144,-0.14285761463101024
15,13,0.07762847861542174,0.1274422538259819,0.16816213968343244,0.14465606521039956
16,0,-0.032557009422998336,-0.21002116282566446,0.035281128420155565,0.10212497005205284
16,1,-0.013390091514012699,-0.12160716448942625,-0.04129339460727844,0.0647584321795653
16,2,0.028640638562419257,-0.16281522653228958,0.019379412293344497,0.1855796540785415
16,3,0.008877293421319973,-0.09784663683788941,-0.05191258195099273,0.005566025915267037
16,4,-0.043249691249038096,-0.245450930118947,0.1688988674250242,0.24798082274266361
16,5,0.018134178948920894,-0.19235195450360376,-0.026920731272562417,0.0784243067480838
16,6,0.15083686657616077,0.07592304652258733,-0.05333634916836367,-0.21202623152238328
16,7,0.07525781948712751,0.06724168823104332,-0.03314669389281838,-0.17064102498901224
16,8,0.0845099083166666,-0.09984126052079942,-0.043491616635171634,0.032062126428127835
16,9,0.18795023388252205,-0.07905389393187984,0.010158400118935772,0.029593857436672137
16,10,-0.04140970487694997,0.050554625243416,0.05516943922343644,0.05240553895964424
16,11,0.1058124144603019,-0.09135712270188096,0.010702880306025243,-0.0687358547583671
16,12,,,,
16,13,,,,
17,0,-0.0234229270590197,-0.13748742024913063,-0.11601563043045555,-0.16346318584228564
17,1,0.06081945703474876,-0.08460460540560029,0.0018484952259244514,-0.0641151214348584
17,2,-0.0037927010237457405,-0.01309222231963362,-0.02067744915602008,-0.04914980259442775
17,3,0.07154311931047967,-0.08367484186482298,0.05458668635445336,-0.03772842181380779
17,4,0.18735684997835478,-0.08956357031755567,0.15271763425917062,-0.025403704817193874
17,5,-0.025049917907365396,-0.08377354826414274,0.09791402405790162,-0.029764069170994206
17,6,-0.3394191586404256,0.11482300595204825,0.0951979545356868,-0.13732167793157296
17,7,-0.19550666761297325,-0.012625246389895551,-0.07221590927164931,-0.0530808131278748
17,8,-0.15242462991194114,-0.02999929942361177,0.0007512877688873355,0.0025127620165444676
17,9,-0.044208817908113346,-0.0380324956993507,0.07505858393035379,0.08617913260063126
17,10,-0.003115533262254801,-0.11491917832152469,-0.23091665038959916,-0.15333889080573107
17,11,0.003213738069168855,-0.16638957006582772,-0.25812415302299474,-0.15749108661282274
17,12,-0.009397126695102084,-0.12613977326990264,-0.19853828316711988,-0.166083867183178
17,13,0.04125426779176401,-0.1124311700656631,-0.11069285375994471,-0.15323335363118942
18,0,0.06103367162331472,-0.02354926562569968,0.10637224017957339,0.09214113176384084
18,1,0.028969480435437872,0.020632280444634225,0.06746134999042018,0.08875451436308497
18,2,0.06859497957638051,0.0201020933331584,0.1178539804240037,0.07006429486407875
18,3,-0.03622125143757087,-0.004354611908292904,0.21275877760195486,0.12172063060383162
18,4,0.22921535112075758,0.07341713921369847,0.24764098901611417,0.2615684011611406
18,5,0.10177533549770323,-0.005903349027516521,0.11946038867152106,0.0859496333776354
18,6,-0.07053948166182442,0.03294826919442203,0.04449534167289988,-0.08852464722139201
18,7,0.011282152721478414,-0.037939103814178074,0.02883796489970202,-0.04805414270649763
18,8,-0.027466430515259408,-0.07107096260665653,-0.010939262158838529,-0.0690060545200084
18,9,-0.02225626201682027,0.00907725799057208,-0.00520088185343082,-0.030002979570848205
18,10,0.02278240984679703,-0.02404055649326802,-0.046275941289664155,-0.040156883256501144
18,11,0.019356481322440857,0.012074989237853028,0.07645735993955544,-0.025395172922605735
18,12,-0.03253368599691123,-0.0034212562551161887,-0.03903025628814233,-0.04586017362350552
18,13,-0.06879733104343815,-0.03248755305598535,0.016443920453109134,-0.07191161067359692
19,0,-0.00823094314331313,0.05602009932330959,0.04303574259554473,-0.02088292113260529
19,1,0.007602920155607595,0.07669960254584192,0.08733575218846584,-0.034611325474050374
19,2,-0.014309087130042484,0.1589214994101137,-0.11564816001296087,-0.04576226226943674
19,3,-0.036721832386428385,0.18935805804741035,-0.03621741369779614,-0.06185406430306627
19,4,0.06227108513869711,0.07292031373028134,0.21134607526126384,0.17415361230602536
19,5,-0.015488126492850742,0.03554526792870115,0.0010909560621942208,-0.008442273983618787
19,6,-0.010888623236074731,0.25869823056844327,0.05009198655638628,0.10302626065273117
19,7,0.11195173812541206,0.19165339706550327,0.15686564206499348,0.12225035153484404
19,8,-0.013863000799425576,0.19519161906257687,-0.04113636282255576,-0.05406524412169645
19,9,-0.009252890901674644,0.12100916265732826,-0.041182643275978176,-0.07445579867325365
19,10,,,,
19,11,,,,
19,12,,,,
19,13,,,,
20,0,-0.009939210932644457,-0.016323931968748165,0.05093516299690268,-0.06347573638463823
20,1,-0.02713684264267679,0.03014538461751898,0.11579522251132456,-0.032738572799239946
20,2,0.10694275653858848,0.08497383922424652,0.2398055341055202,0.054815597306358085
20,3,,,,
20,4,-0.03090497303142015,0.053844397487277915,0.10830280455957028,-0.008027250576860339
20,5,0.01357218169815023,0.10745197803183179,0.15917929308753523,0.031792844486133925
20,6,0.029090040511453655,-0.036193384914438825,-0.07333464525898227,-0.05258050743012791
20,7,0.008354699107742836,-0.01657260716133893,0.061303751414613,-0.08133160601782904
20,8,-0.06399903778384253,-0.0696216027739405,-0.005031379181256199,-0.06430528378105395
20,9,-0.039726379621639635,-0.02331335258973982,0.11971360075662224,-0.009561000390580793
20,10,,,,
20,11,,,,
20,12,0.15334542681919378,0.0038640638770887884,0.45465973773888285,-0.015501318526023145
20,13,0.12007635941028033,0.01757650353830076,0.37005046518363927,-0.0438482383970129
21,0,0.101567803017386,0.127726489249434,0.11690513785199141,0.16197171201855554
21,1,0.039969895683790925,0.14546414764197035,0.05060420050488313,0.1047774908654959
21,2,0.14956496214787707,0.2545695348379622,0.2049510848051506,0.3117322882720194
21,3,0.1485526612398864,0.3683413375822493,0.31111407980397787,0.5386610685598718
21,4,-0.0546459268323119,0.04707928587866741,-0.004005360427473413,-0.014483023648280087
21,5,0.07775506305741527,0.09778958773138569,0.0569983950546349,0.09263823846276135
21,6,0.158982708481567,0.1833427807427589,0.14500019726472546,0.25896877127991386
21,7,,,,
21,8,0.14540380893780233,0.20047858288367618,0.20952741709883238,0.2900145779378778
21,9,,,,
21,10,,,,
21,11,0.15401801552101355,0.05812423658460292,0.1127754412358868,0.2548800108408227
21,12,,,,
21,13,0.1711499673545507,0.12345498314557192,0.1740267735999676,0.21521515686289727
22,0,-0.018016794583739636,0.06483000616159386,0.04509841470112771,0.03271105722591715
22,1,0.09065641444445717,0.17827105060707282,0.1005428051707936,0.05628767432631168
22,2,0.03877973010722266,0.109768982986584,0.007785244837305304,0.06790716725060567
22,3,,,,
22,4,0.01001534643919148,0.1691787626754282,0.0249594827131021,-0.017369195376944205
22,5,0.04372986260553785,0.13219181395531268,0.04932798779924811,0.014651659006406779
22,6,-0.006915963560567782,0.14779908347970439,0.11804700933700345,0.025103839191969547
22,7,,,,
22,8,0.05493124870432546,0.11027490278657046,0.08669499399524329,0.0021405753486446995
22,9,,,,
22,10,,,,
22,11,,,,
22,12,,,,
22,13,,,,
23,0,0.10197273729075809,0.27055088337903005,0.09647567080150796,-0.011241140467435061
23,1,,,,
23,2,,,,
23,3,-0.005513821635436836,0.007098102012158409,0.03067213637745364,-0.014603633562581536
23,4,,,,
23,5,0.09087207055605898,-0.08573479245853846,0.13950532947290697,0.361256397466813
23,6,-0.17289871309991722,0.1173313575473327,0.13617053996115436,0.11861227137253132
23,7,-0.03887963287952407,0.08709212448868175,0.13556313839535633,0.048316058040750086
23,8,-0.03762326870533759,0.06819569460249296,0.014412974020405775,0.021586257735985187
23,9,-0.06337235772335369,0.08268108176728244,-0.12774814800728648,0.09340170471387386
23,10,,,,
23,11,,,,
23,12,,,,
23,13,,,,
24,0,0.0467126000892907,0.19355118177013875,0.0018253409542415202,-0.2721691560970336
24,1,,,,
24,2,0.021238501323143245,-0.15265043061628872,0.0889699423679437,-0.1737928198912042
24,3,-0.07518045395339032,-0.011578849490949932,0.056685761807829194,0.058155524702459986
24,4,,,,
24,5,0.15111792511896924,0.11863761254657174,0.155095798711418,-0.03891639349918312
24,6,-0.12276871143838308,0.009798130776034425,0.009223445735275611,0.14792707110065403
24,7,-0.08507020629086068,-0.024960419749384417,-0.020255914979713387,0.06953292635975634
24,8,,,,
24,9,,,,
24,10,,,,
24,11,,,,
24,12,,,,
24,13,,,,
25,0,0.005571596089168474,0.19000442569149395,-0.1999455709718459,0.020545719187380962
25,1,0.12919793007577732,-0.006893609349230063,-0.05301201508117237,0.013099094822126013
25,2,,,,
25,3,0.0762833524369918,0.02589307362724808,0.048449208229400166,0.08337556411063046
25,4,,,,
25,5,0.04457751294768727,-0.06316626136472844,-0.06403018025906675,-0.14434669654793159
25,6,-0.08134544928331054,-0.05553424439205325,-0.030654516413174057,0.014784342110294703
25,7,-0.07069661192722333,-0.1958253215945355,-0.03844236861291472,-0.007956245921875882
25,8,0.03849356255281955,-0.12061325932697832,-0.020438649793382887,-0.04802892943549746
25,9,-0.013909896993070598,0.05545023905768028,0.0960307107561636,0.021013731695250525
25,10,0.029178817037792168,0.005970380353071507,-0.10827356519832246,0.06464402954480358
25,11,-0.016294978037593156,0.02319674953535124,-0.07488466215767386,0.10014522520048527
25,12,0.10239747867726938,-0.027201769389506785,0.045561925311333434,0.14147809777376807
25,13,0.11059552363819086,-0.06042156349843702,0.021278557312269002,0.10078173336240588
26,0,0.044958460136851716,0.16202290611019626,-0.04817807841052042,0.09669004908702056
26,1,-0.00998591785540521,0.1713403338796622,-0.04508068655476283,0.07926085732756563
26,2,0.14139425166787137,0.19150796619452734,0.00426622813831299,0.16570216396319862
26,3,0.15400078007328383,0.12788342726710394,0.08693462315172747,0.19915326723330182
26,4,0.25303689253662703,0.16463326928226826,-0.006189252524731833,0.1668796713803668
26,5,-0.1781738479414911,-0.13033168844967552,-0.42850429850561433,-0.20023910167248873
26,6,-0.08112895266592984,-0.052689773505997406,-0.1789232288047616,-0.06427390610476308
26,7,0.016136542702137085,-0.039983722852686164,-0.10743467058155053,-0.03683179886125809
26,8,0.01894358311242982,0.012655744771621225,-0.04380252794248836,-0.028031525280597065
26,9,0.04811862967052232,0.01994662048035377,-0.04194083270012335,-0.024545341490269122
26,10,-0.006887714297215404,-0.11678999316249206,-0.2598022411606051,-0.21502337838259017
26,11,-0.03524432664695822,0.06404507393971738,-0.31573760646725435,-0.20515755792473894
26,12,,,,
26,13,,,,
27,0,-0.04281502213713966,0.08505978618335537,-0.008350353232411734,0.03768030682263636
27,1,0.018548607674483297,-0.0690923902896447,-0.04058331980307232,-0.10344333445374984
27,2,0.24307840730506614,0.10834576217119028,-0.10022356418192506,-0.037296906961754306
27,3,-0.009435148961146798,-0.02482950221418462,-0.03811508795212646,-0.0776372158390398
27,4,0.01727755775416788,0.033259467055995154,-0.02603457816783946,-0.0016567278649298113
27,5,-0.12474533025200454,-0.029369511181208376,-0.04795734314115027,-0.12530332175083286
27,6,-0.15491409189807842,0.05936719270047535,-0.09656968851378571,-0.03535578569547661
27,7,-0.02776039500921009,0.009832003620731795,0.004638039177450825,0.015096612531303842
27,8,-0.08762894900010065,0.007609359394579904,-0.10901881762096707,-0.022487766151815098
27,9,-0.05514107287944178,0.01997326098638916,-0.09980320881245755,-0.03366291131051345
27,10,0.12038366131728931,0.1798232310602917,0.03488354703989947,0.0629154129910711
27,11,-0.13360705316512808,0.0468852873878587,-0.06118009197087259,0.10490936408664595
27,12,0.025839786297711033,0.13160532676667835,0.011711209146561437,0.0688041953109852
27,13,-0.07879806673524906,-0.002080500799527595,-0.04249140149911481,-0.0075739306480924595
28,0,-0.0064155126512645076,-0.008209279245757883,-0.028280658903292247,0.03934034641211254
28,1,0.04263055982794767,0.009837022532744885,-0.04617006690093051,0.03749541867985912
28,2,-0.03297594268875998,-0.09419688432384404,-0.1821318426985456,-0.10038436406171937
28,3,-0.054500118633013246,-0.15415535031867922,-0.2520808522698861,-0.13163484770309447
28,4,-0.05545956664755468,0.01690772808625134,-0.037230685925101425,-0.049325633804989034
28,5,-0.007231463622408656,-0.020124821103208696,-0.04372274748336951,-0.002735085699562915
28,6,,,,
28,7,,,,
28,8,,,,
28,9,,,,
28,10,,,,
28,11,0.030655990507152342,0.0700120895398651,0.01951902713138436,0.005059634003964118
28,12,,,,
28,13,,,,
29,0,0.05190224197680557,0.13181357838534413,-0.05257167626398699,0.10755880431223142
29,1,-0.0026933760239839246,0.17116109351320308,-0.10513202659014695,0.14133549151390573
29,2,0.027010403924021112,0.13774735021495932,0.027836133151987415,0.032345703799684065
29,3,0.0172018712421773,0.1255836300755251,-0.027420084393398,0.051764473426901644
29,4,,,,
29,5,0.11431356271201072,0.30669327683853903,-0.07798843859705962,0.18797980121165284
29,6,0.021491722479567932,-0.011104177489109178,0.0103309740731319,-0.009271263552744966
29,7,-0.008810759716270827,-0.005811882268031414,0.010158362279908888,7.04575509707951e-05
29,8,,,,
29,9,,,,
29,10,-0.021133029668313617,0.07403436546178571,0.06481490741695436,0.051528407510286055
29,11,0.006339811394875776,0.0456378032340203,0.07472684956318304,0.05984130302822327
29,12,-0.00326908481225059,-0.0006685216109886261,-0.0016938085211659242,0.004268734789277819
29,13,-0.014435736475639113,0.11454976428980054,-0.013604322320753278,-0.05180611391359514
