S,Channel,0,1,2,3
0,0,0.20670764987812276,0.015628876909367387,0.2888013338821797,0.012160310995053542
0,1,0.23056634974530593,0.010167755610890694,-0.03346253429997334,-0.0028633845512388164
0,2,0.1752968408604334,-0.03638528541093067,0.28289994303957694,0.14826930325440738
0,3,0.13442569467059226,-0.09736747130005467,0.07194339320659496,-0.10556969230068336
0,4,0.42303727761553755,0.17737303489215162,0.2295305473702972,0.2137569975293002
0,5,0.4323851240401117,0.11855558162258475,0.31946370193448903,0.23834928610785386
0,6,0.2249277789392356,-0.14629189268304302,0.09267994138960571,0.04698634152333977
0,7,0.3719765151444339,-0.008574008557065346,0.27765771314402005,0.10349880206557723
0,8,0.18484316573397144,-0.06772132330597735,0.11270150415435312,0.07779204070440743
0,9,0.46440732413679264,0.13176550357911296,0.22218460828698583,0.2773572608479889
0,10,0.26952357167361857,-0.10975291659513622,0.26440974146676854,0.2520071163632381
0,11,0.26448265456792,-0.12459940640654844,0.26121308785437924,0.2753120678663111
0,12,0.22163425531363673,-0.07419468912297712,0.201205296929924,0.11222959962374343
0,13,0.26238501893614335,-0.07595656453154402,0.28611211678284226,0.237246542903432
1,0,-0.05683560976240874,0.05157371564733259,0.02220364022218485,0.19517101733765202
1,1,0.0012930271627774664,-0.07884274790492922,-0.05675623659444166,-0.026024039722402692
1,2,-0.0857992387871132,-0.04009766757871913,-0.06369686499928587,-0.021647009974654362
1,3,-0.16875509513354894,-0.16000844752719398,-0.10962696582923857,-0.09736298557948139
1,4,-0.04646855313037812,-0.09190356237715187,-0.05859721702697194,-0.10249983252418665
1,5,-0.2059905016819057,-0.0600906714010698,-0.0638211441830134,0.007738472227892463
1,6,-0.1770633530601259,-0.21064939054416207,-0.41843997013166034,-0.38925758271476774
1,7,-0.13398318151025415,-0.15259345524690332,-0.2010253986681916,-0.22921998486290998
1,8,-0.10170331268826649,-0.30576512768860437,-0.43317529875347094,-0.2664487000832496
1,9,-0.31338995455633234,-0.16299057919696858,-0.23922322271274685,-0.21755790172761638
1,10,-0.0860872504756111,0.05713847202910128,0.15568424878196038,0.12655844715815173
1,11,0.05203084841964864,0.03318188392675348,0.2078676445988157,0.284333306584493
1,12,-0.1517584403807625,-0.03446219527985411,-0.09689713209267452,0.037068320157093326
1,13,0.013267190960364645,0.11252220068092937,0.16244175731336227,0.1696952913037314
2,0,0.3318529242749124,-0.03733846472930673,0.14332382747101585,0.058172115030117315
2,1,0.28175040175399224,-0.07568726795569072,0.07668880980762134,0.11471765823257776
2,2,0.21026636531919063,0.037060625185189044,0.15348665740693773,0.25100196789088886
2,3,0.19386481605026723,0.08290001870297414,0.16809724775675752,0.07689228720324424
2,4,0.3433458521253663,0.006866190523455048,0.2790962785071989,0.15288438887210698
2,5,0.252546222489262,0.05051520913670677,0.25102502081852285,0.13213723908173228
2,6,0.057842738477860485,-0.20834812898698463,0.17905852338903241,0.2508912875851658
2,7,0.2245288461884492,-0.017481375016146782,0.24003805688870133,0.1753533166654021
2,8,-0.006126956638459017,0.12965237141321073,0.18898854536404983,0.37791000545967807
2,9,0.1182821351981261,0.17434089103910203,0.19688103866889453,0.2076161670615434
2,10,0.691618485059799,0.3674096837142074,0.5619556101456532,0.1456883561883844
2,11,0.21529641158329696,-0.035041197219301025,0.5152948333833551,0.29903021610134367
2,12,,,,
2,13,0.11196534107433986,0.18771452232417762,0.5142425664399396,0.29453128148720087
3,0,-0.008277071685936874,-0.045621461017656136,0.00015648210895036208,-0.03367614486456608
3,1,0.0020682426635287854,0.028691642449773527,-0.01872949909664592,0.04239028928258626
3,2,-0.018242202704426065,-0.010897835385503658,0.08703169849162337,-0.06389716489336382
3,3,-0.034231370902510154,-0.016479212914762308,0.057394334563333683,-0.0983540605958253
3,4,0.17750296479383898,0.038077585399990885,-0.1351033754275027,-0.12190254071112898
3,5,0.0888888034657206,-0.02881778925139567,-0.09089359986394785,-0.0649990580159329
3,6,,,,
3,7,,,,
3,8,0.04534441358889031,0.007157869991053636,0.10402460404887921,-0.030215340190526657
3,9,0.19142410653057546,-0.11950853122782804,0.08735109628029271,-0.1133818900738685
3,10,-0.20532638866046005,-0.0002613156109747601,-0.2521378012658217,-0.04996514331920345
3,11,0.010865691910083634,0.017365924008009785,-0.296084505358994,-0.0713652598712243
3,12,,,,
3,13,,,,
4,0,0.10255290758216573,0.05099582239188381,0.30498594302210413,0.011219491207819702
4,1,0.24832855069037096,0.008567523063380931,0.08515463050443059,-0.1163528465073681
4,2,0.1773857194584189,0.030552972076068413,0.17530870570125737,-0.0664485573692176
4,3,0.13561952021007773,-0.01957913699581206,0.0719303791750856,-0.13126620836733013
4,4,0.3957521953582049,0.06827452151677474,0.22249382520581204,-0.17696810515914102
4,5,0.22898503370850995,0.04648658482309689,0.08100659205219717,-0.013969099779540655
4,6,0.10334518056538536,0.04242252592047954,0.0547311762598573,0.16894100569151854
4,7,0.17185013344380895,0.1372068930719863,0.1234519228365167,0.019789136413056154
4,8,0.0372053036023495,-0.009881125064377019,0.12067542800637186,-0.06285662756631956
4,9,0.20763206475394058,0.06990480902874095,0.09242897658794581,-0.1366963888463962
4,10,0.23435104193509643,0.04278330427100818,0.34622162074483487,0.07861473498285058
4,11,0.23416055222197116,-0.029657047863324074,0.38521358321371135,0.20788459456757918
4,12,,,,
4,13,,,,
5,0,0.04779951402838178,-0.012741287506630092,0.060059636947374616,0.12539920772381521
5,1,0.11799234730023794,-0.017994582575110878,0.040254629451078716,0.06833276930470743
5,2,0.06413683510599462,-0.025639940413032365,0.00555849838193109,0.016169132687365143
5,3,0.13278943519802966,0.058831166667686105,0.06826686216075398,0.04868532758197616
5,4,0.21098997792641064,-0.018743669443558448,0.07598810039444136,0.15941206648496656
5,5,0.21577947339204542,-0.11571688687193027,0.15520061988655356,0.16506738737861418
5,6,,,,
5,7,0.13773987765936668,-0.0924447120818646,0.03837229161992716,0.34194432105030625
5,8,0.05605165822323105,-0.0548764102241435,0.015013464088235342,0.06785887285205891
5,9,0.1668130553773333,-0.33396565461390526,0.008996267693161092,-0.003330216925570034
5,10,-0.030295645236398647,0.08786585739114326,0.08363456287403778,0.1769193908203188
5,11,0.0920063487115083,0.07523482599203817,0.0897262194037744,0.14016952026399906
5,12,0.19453290423594757,-0.045905867163757115,0.016465511174520383,0.02756361835032848
5,13,0.13941439249787166,-0.03680223377221255,0.12706983320425738,0.016716718945926204
6,0,0.05067583362750605,0.14355261474603354,0.12499403084524915,0.03741151190360986
6,1,-0.012296933720814557,0.0967351340501721,0.06852146853624963,-0.06369212382616107
6,2,-0.0045805648769240105,0.15714206274206882,0.14819980347127384,-0.003156980795394704
6,3,0.023841932041515912,0.07580230351408299,0.09311643360412922,-0.0068199201907208525
6,4,0.013477804273019926,0.2560619749089178,0.1580449173986784,0.19104711992705686
6,5,0.040505033219974965,0.20180828401713577,0.2864200387064841,-0.014666705271388778
6,6,0.08734213835608737,-0.018996903259265754,0.192429942693077,0.07263088784869243
6,7,0.06264524157182998,0.04973085694516962,0.09039130837082521,0.04996686891494509
6,8,-0.0654567110516945,0.12763805871653933,0.12626010438129429,0.05500043668376447
6,9,-0.060246919969835624,0.09113025454012376,0.13249198445552757,0.06816669304623561
6,10,0.06469415488993853,0.1006191928339433,0.21146289450367034,0.15734675692244232
6,11,0.046797227804829505,0.20961598103250267,0.18343138631347863,0.14588198859268475
6,12,,,,
6,13,,,,
7,0,0.1395956722965019,0.12654326526362353,-0.033386825738579866,0.028810747519081248
7,1,0.18563754010436864,0.1234474450301587,0.13427765444019168,0.06247707106069877
7,2,0.13754282880567653,0.25933244095636865,-0.032214750601767594,0.12402799175448175
7,3,0.13301081759801953,0.20701747922152614,-0.027964961438378115,0.060077902676281256
7,4,-0.013723036904898272,0.05151254914684582,-0.1386177976238378,-0.026601939699210115
7,5,0.15266169190035656,0.12355099221060822,-0.03717765688314648,0.10088205590003535
7,6,0.20494469868335496,0.23087555242958385,-0.20243528806185834,0.22915129072316845
7,7,0.20551302928566317,0.26684237082570966,-0.20215453896905247,0.3122977687904345
7,8,0.0935853810677338,0.19026118688028199,-0.1276769084290908,0.23331760503729942
7,9,0.15119476379672173,0.3288030458037789,-0.3688994761438979,0.4361626271532326
7,10,0.13293971734858256,0.24824683644453074,-0.09974560118061818,-0.02432592011460184
7,11,0.025032532791651445,-0.05229183099613995,-0.09265380861531998,-0.0830373378964446
7,12,0.058706171046678135,0.23604108939411808,0.007121475437350475,0.048837265983784184
7,13,-0.027418553026494714,0.07143575175150481,-0.06991561341745782,0.013276970215990109
8,0,0.34065703417906185,-0.07014288275928646,0.28291586814559605,0.25942806729046375
8,1,0.022788709522647808,-0.3037505362855066,0.19366716725720112,0.1590283560209845
8,2,-0.021072056941035734,0.07554213852517098,-0.014726658565214788,0.1611302802457302
8,3,-0.2181232065680136,-0.159258318554097,0.1016353482323835,0.14500397165353687
8,4,0.284316992416149,0.006410885311266406,0.14078764420441814,0.09678488468324897
8,5,0.1932783590033467,0.044326107767627514,0.3414003182642762,-0.027590866957311576
8,6,0.06110766801327656,-0.2338273550340686,0.22683583898744578,-0.0154119361455172
8,7,0.013222819278060668,-0.25555336737392276,-0.06629962656493948,0.030781876235620908
8,8,-0.034982305080949586,0.06333345042262692,0.20906288082634306,0.09533998466156751
8,9,0.06438436293198213,-0.007265538450230111,0.14351045334465892,0.0975594871260575
8,10,0.15780711552845775,-0.04175831203596235,0.16392351373298503,-0.0381900963126276
8,11,0.09016565881540266,-0.0345863582845683,-0.00013112479062483867,-0.21088918683980387
8,12,0.2584928589481582,-0.2186847662614851,0.2383703662354998,0.10758721050160443
8,13,0.2133400793149534,-0.4122777316431526,-0.10513651727326283,-0.08184791230926979
9,0,-0.1507754976316559,-0.43553978838839036,0.2584878084004146,0.01175762715784136
9,1,-0.02285388398543098,-0.3717399369684567,0.08534516659798853,0.046855986505208086
9,2,-0.09873743872708907,-0.324113132724872,0.07799412246462897,0.013869773202666878
9,3,-0.006090365865839554,-0.21253368373196949,0.010141136694763738,0.058435311227436636
9,4,-0.10545289233605892,-0.16605908684231677,0.09867928045767234,0.16194572137600194
9,5,0.20209441104562775,-0.17178461395479877,-0.1429002049817667,0.23836268468373192
9,6,0.07141888684279835,-0.3235728237967275,0.006579252573362512,-0.07119775562517458
9,7,0.09869928188918263,-0.16538572275389166,0.18398938775011342,0.0914380629218144
9,8,0.16031327895474223,-0.16219150073468666,0.08399395534091463,-0.01553515316724729
9,9,0.08772665575664623,-0.11907902725306299,0.02434411602083702,0.10890224381711494
9,10,-0.10224040113387518,-0.031349757810916465,0.14340646556289455,0.005398865598455054
9,11,0.07021642710465209,0.03605260806590955,0.0210759907739219,0.13871748223811078
9,12,-0.06964638562792586,-0.25118438127226833,0.06741203328212861,-0.09835939975740061
9,13,0.10887850887414424,-0.21255747957166732,0.024198157483879688,0.23696972845694783
10,0,-0.10439416844194511,-0.004781164021129033,-0.09513202761815591,-0.18016983363819694
10,1,-0.017315960207219108,0.032487866813032264,-0.042005777792473206,-0.06378383810407412
10,2,-0.1346387159435822,0.09691448043400352,-0.011684692229379859,-0.245157308922794
10,3,0.030520904581277937,0.10013639178879856,-0.010756589648789797,-0.08196841932976119
10,4,0.11560088829314996,0.06252344898280209,0.1616977640257104,0.10696598112959502
10,5,0.046768395104616056,-0.0008621358905830379,-0.006645295645866051,0.02962871855564101
10,6,0.10530573328538503,0.10168668764294767,0.16994709480547363,0.006866457545967335
10,7,0.07079781157056904,0.0234289195211902,0.06580299355772318,0.04657929384840864
10,8,0.005417645933552958,0.013885342242085152,-0.010580010576146739,-0.06296899428748085
10,9,0.12741746592132833,-0.00430258938024229,0.10318137304896818,-0.00815872257817064
10,10,0.11198799576012501,0.13765145329691464,0.15217328078458747,0.12597937367706918
10,11,-0.06599416853321916,0.01847038209792164,0.09424148180930006,-0.010005507996524329
10,12,-0.07710698978524606,0.05583113307837496,-0.054454817480896804,0.0033279204868211566
10,13,-0.04888764452184947,0.04356916656434901,0.07367972591852484,-0.034336465397063164
11,0,0.08079780907440798,-0.08435037779219053,0.07729692471564331,0.034082362260489815
11,1,0.01085474452741877,-0.14937503897376186,0.060088781532799035,0.05543749765728253
11,2,0.1927407323743393,0.030975672672351472,0.21172604233096945,0.07535486749809425
11,3,0.09341686271323126,0.0846241355206486,0.1651168838574668,0.14239562910458656
11,4,0.05303251261811853,-0.053237110154318326,0.08931512829183821,0.012365622010649557
11,5,0.16074680526612944,0.06838344888375553,0.022798587359707693,0.18535929302271295
11,6,0.2832109576573756,-0.1279983311630018,0.14530993509729784,0.6388211880656559
11,7,0.15958955365265695,-0.12091471457463764,0.07593375263926741,0.12105474206764366
11,8,0.22649093188210329,-0.17278356191703856,0.26411663915308453,0.4285115813910796
11,9,0.17351063669097325,-0.16711314727659804,0.13938535135662852,0.16740371064927975
11,10,0.1991405965652004,-0.05281835834493234,0.3240439763555863,0.20013755096840458
11,11,-0.046507820058852296,-0.20086566194149033,0.22361264728717034,0.5631576045491387
11,12,,,,
11,13,,,,
12,0,0.056522149498357314,-0.09500813979881195,-0.1569583420323466,-0.24419313908115053
12,1,0.22757495340645778,-0.07139724796003753,-0.1542796444374259,0.07427356997550871
12,2,0.02717085459625219,-0.0007198370000440017,-0.16956171429917793,0.0021514893394638662
12,3,0.08582237910568996,0.04889532435910469,-0.124515416660543,-0.007423871948745878
12,4,-0.024545212155296082,0.022199532462484146,-0.17089739734273973,-0.08676210241688016
12,5,0.0313418452118602,-0.6410987552413243,-0.15320376168691893,0.20100761233499628
12,6,0.09575413865506315,0.1853479349670084,-0.14353637835511446,0.5238342520326706
12,7,0.04469591882266711,-0.038783943644219415,0.05405944852208822,0.38474289069244283
12,8,-0.023690072093137032,0.05345033293547347,-0.16407536669228565,0.0685348069981434
12,9,0.2770326895646969,0.3472968443126999,-0.03205964926525377,0.15053213690196474
12,10,,,,
12,11,,,,
12,12,,,,
12,13,,,,
13,0,-0.07507138357310504,0.35618005877827963,0.29687532029100333,0.37063926992314944
13,1,-0.15815122292104605,0.1907676542561985,0.15818686074507704,0.2441279503315989
13,2,0.06380870257636757,-0.011677983797171495,0.1604227150519941,0.10337673030777292
13,3,-0.015578213453222621,0.09961335937260604,0.1228532692677082,0.13133396093309951
13,4,0.05110463754329963,0.21111493240979884,0.1844923973877138,0.002755500161737905
13,5,-0.016420493167298853,0.17338326807471544,-0.07628574442835516,0.0732913534806614
13,6,-0.001003091124971994,0.26427715587880707,0.2043616004331566,0.04775719970022163
13,7,-0.05549824717412646,0.1802169887286409,0.4226027504840091,0.08295352521567746
13,8,0.1278653799275283,0.4009732408685227,0.12698261314707776,0.26406115355655835
13,9,0.17818307017100157,0.3886198333222036,0.2768176618812526,0.004938212241238335
13,10,0.05696633838134383,0.13596787403831093,0.4823113215423731,-0.174046217233137
13,11,-0.01601128333344958,0.2980171051508702,0.38426502724355466,-0.06660250242447392
13,12,0.18878032620090263,0.16910780753842652,0.2983203115343069,0.010678176746971014
13,13,0.1109467829407241,0.13551913755422207,0.21714575615803453,0.36359686839731004
14,0,-0.02561302387041699,0.0008707851618922086,-0.1753939437649387,-0.05903196874608377
14,1,-0.08947936986881312,-0.03211975865140473,-0.10202311180188933,-0.04735462147933013
14,2,-0.049801780270188334,0.031192262184246276,-0.07922851351351008,-0.0943345842742755
14,3,,,,
14,4,0.16344175403909103,0.13066801685129165,-0.0738052927158422,-0.09097093389718133
14,5,0.09463903296550034,0.017728517046395255,-0.08502880008234363,-0.030653823550788176
14,6,-0.0609163550379629,-0.0419416940342066,-0.1144507813140296,-0.16121211912644537
14,7,-0.0232474500954821,-0.04227761895296411,-0.04661199624798916,-0.09792708899425626
14,8,-0.06181084870402436,0.07431571630904138,-0.032362103084073196,-0.0965095075944694
14,9,-0.01805631148421631,0.017376106669748943,-0.11071891378994778,-0.23816016486565875
14,10,0.024550842420727723,0.012029744837081075,-0.04711971785712729,-0.08229581979874558
14,11,0.01638795842246961,0.003242626105880042,0.033812259419598374,-0.05908563126896929
14,12,0.0882045039080892,0.1723144769524035,-0.07249577288017638,0.01972114982605561
14,13,-0.011071379585152481,0.03322883487770805,-0.03354495801459639,-0.04329083530182889
15,0,0.12456872073427258,-0.07837006210373652,0.17332740482294856,0.29059800266691166
15,1,-0.001221677376059683,-0.09619020118868435,0.1588505525199738,0.011450931354240163
15,2,-0.05038130183352094,0.16389174552384833,-0.0009009991132663627,0.057186382884704914
15,3,-0.07443566685122896,-0.10166118956996974,0.12853273752307803,0.16403255648814136
15,4,0.17398269953328568,-0.10205840691760829,0.0460472595826821,0.1718571383745046
15,5,0.1329368688718424,-0.09650242418099862,0.3126516859117654,0.4668274042599109
15,6,-0.015143095204649251,-0.13170458090967596,0.17214202719895516,0.17206069035756805
15,7,-0.058485199752375344,-0.09620176460425191,0.03634705742617537,0.40302635431356637
15,8,-0.06728330164774243,-0.08213691538864988,0.124036151395491,0.06601787724298609
15,9,-0.1880441010734653,0.042766689676495405,0.2741463884548325,0.0497044645248502
15,10,0.0034047158621601605,-0.01595994776575976,0.05332053678429363,0.15791832505641298
15,11,-0.03009627687904,-0.033543681804022715,0.12121820748098323,0.2796079092842876
15,12,-0.12965373089329502,0.22159123251355314,0.03989306037325089,0.09560966130247796
15,13,0.1648047231421276,0.24733840261674522,0.31173360953497975,0.20261277968876445
16,0,0.06991205433629705,-0.04532348144780198,-0.04757483925230408,-0.04154765016983754
16,1,0.09075633558425499,0.022296407405378207,0.044530038371644105,-0.16292855894716415
16,2,-0.027100189207917694,-0.14716632985336894,0.0736383632240515,-0.09211744131793315
16,3,-0.002328861937874676,-0.1186449837278874,0.014929220569766168,-0.269816837534186
16,4,0.09452701110861973,-0.036640929323705176,0.019221659430228005,0.0594609126523071
16,5,-0.025016289121643536,-0.09157248794770673,0.09437467263376215,0.03473659127923448
16,6,0.05665201089947227,0.1761733484071189,0.03478644691796683,0.13739444277449273
16,7,-0.09464694792089329,0.31080528938691115,0.05907337845172183,0.07705770113562785
16,8,0.04020834956309179,0.01415162989647375,0.004660938483357853,-0.019160826241069417
16,9,-0.029408631608436434,0.18743309387813376,0.10381245503245252,-0.06115167414339137
16,10,-0.1217484941065947,0.3195924171660002,-0.08288369428913019,0.02359879258353399
16,11,-0.06856306338875337,0.2796972021540229,-0.008646966099766241,-0.06148392392190113
16,12,,,,
16,13,,,,
17,0,0.00306531336762056,0.02767866747723584,-0.06301548953386066,0.09462519131457836
17,1,0.034447009144777774,0.0970576244257629,0.16803617881817864,0.03802239430806538
17,2,-0.027964484014117767,0.09477849787431282,0.222224669860671,-0.19838935494183377
17,3,0.028090683311102666,0.14224168170059506,0.22356920619938683,-0.024598764944157064
17,4,0.20420767463876593,0.1810914263255209,0.2711085397289797,0.04399742952165532
17,5,0.14302998817831894,0.09560349072165251,0.19759327160805235,0.058306349354769985
17,6,-0.016464815226062465,-0.11660025527496916,0.07354022222932424,0.5677135002167698
17,7,-0.10699395908940224,0.044463397896690564,0.034823336259122484,0.3267061168701917
17,8,-0.13733151426599055,0.044073940815546275,0.14651030344980123,0.2999191988464828
17,9,-0.12869634196092894,0.0996355299286222,-0.007492978499032156,0.12751100913462537
17,10,0.13246399665860123,0.36764468261324695,0.3154651132903981,0.3322761087323415
17,11,0.022030969452491844,0.3428883233241999,0.012712670745995342,-0.1546681112890269
17,12,-0.03266370252549013,0.2686955272710228,0.22494618897975224,0.3107575646825866
17,13,-0.14805995150785645,0.29015114899179517,0.11420771774773131,0.025514196819482946
18,0,0.018336141741323295,0.12083244713520913,0.08164130486584896,0.12859530577004316
18,1,0.0016100322227894591,0.17566813007013812,0.0918488659227167,0.1630670589958219
18,2,0.06375434038299652,0.3483065530929175,0.12185713404095565,0.3642302703580406
18,3,-0.03688938627546981,0.5208353849491503,0.14616096815856042,0.3723458165050141
18,4,0.3016164923161142,0.41123801996419035,0.26120660139415564,0.2339173483612849
18,5,0.08594780839448257,0.13119008176859742,0.17986836975301393,0.16692251265936242
18,6,0.03643521586359747,0.051161256440477594,0.04457859282372143,0.367856729160461
18,7,0.023199030813298882,-0.06447281411951075,0.16326181299163942,0.2148291137025626
18,8,0.037388291077704354,-0.029327628179797168,-0.08415941469966176,0.1886382979229999
18,9,0.0027629064412524056,0.0975168510829578,0.0620768309144445,0.20686364911135255
18,10,-0.04473366014811961,0.04383172683264119,0.2104823613382462,0.2766966978784953
18,11,0.021121552067589894,0.18093119619297346,0.2244158694424603,0.3223508783836399
18,12,-0.05381029906513532,0.15422214899036243,0.10892932807807897,0.33391292478732854
18,13,0.03476509993831087,0.11693566051472436,-0.03875692817485848,0.2809138939235973
19,0,0.10626768596762919,0.0018503045158623195,0.012702539608793284,-0.02515734788091708
19,1,0.03763682189245003,0.07480921618371388,-0.04126719308113794,-0.09863286146529641
19,2,0.23088453228115657,0.21825718755404744,0.03780674937814366,-0.296888016028081
19,3,0.14845679575376844,0.28663962977980695,-0.04901727531635096,-0.3323386654990162
19,4,-0.1506963941061602,0.27882446630227825,-0.03488817989083842,0.05926512021780729
19,5,0.1217074076731599,0.06157996395753194,-0.09809970530367285,-0.11900784067537483
19,6,0.03287580285856191,0.16495755556081182,0.35735918430549624,-0.000629458251222605
19,7,0.13180432572563067,0.1503497339629007,0.2742736448438617,0.04249108185865488
19,8,0.045545012844363415,0.15304402226954664,0.10804951085291456,-0.12508273737065134
19,9,0.11668010133279372,0.12962606297866464,0.08336965857216276,-0.18577451884129592
19,10,,,,
19,11,,,,
19,12,,,,
19,13,,,,
20,0,0.033620730349799344,-0.0355851268773286,-0.09152941694179607,-0.019925298897245522
20,1,0.05734582516794908,-0.0516331848043681,-0.07205079132825938,0.021745669900924483
20,2,0.21506851172102154,-0.04418770266708901,-0.07612530802522703,0.06198038420910115
20,3,,,,
20,4,0.10784997128228176,-0.0267251470273266,0.10163065457780666,0.15478893025004614
20,5,0.12353158581421506,-0.02020230026223419,0.11320972515015387,0.12686813859725604
20,6,0.2765210575576423,-0.14718656564302168,-0.10262348888235032,0.1991591765604191
20,7,0.1563224507510256,-0.08950962547255889,-0.1064091959414835,0.09145600372268818
20,8,0.12722085739243738,-0.02220023341622328,-0.06221749105564759,0.06925186342818845
20,9,0.03464588787615365,-0.0641486431450585,0.0010341157885872378,0.03343279983722708
20,10,,,,
20,11,,,,
20,12,0.25508595344191615,-0.2524283755444449,-0.14112015874155906,0.27992283307017846
20,13,0.3334412377372331,-0.14110248229288253,-0.05589823366526207,0.18206577233686025
21,0,0.04116202434584165,0.05094653023135231,0.20780327380657773,0.20689254874845903
21,1,0.05333103924402364,-0.0654584999683149,0.16665347480851733,0.08218362391712145
21,2,0.062137200674851296,0.20608989314414283,0.349528607887714,0.1267742094698945
21,3,0.16004650636654727,0.18132019041090797,0.42416296289912303,0.2567862523869833
21,4,-0.06664704142141042,-0.08206812086944096,0.017867617713842043,-0.17432756146646755
21,5,-0.01666997301319862,-0.04902078978390727,0.16599087525566344,0.06893137351796318
21,6,0.17537481926204285,0.14755921542779848,0.4829121785441752,-0.004081696227744487
21,7,,,,
21,8,0.1584972261949244,-0.014928460542314587,0.1482621360052514,0.012858818054633294
21,9,,,,
21,10,,,,
21,11,-0.1421351327197157,0.13239753955069153,0.3694429665527859,-0.31880227094258656
21,12,,,,
21,13,-0.06597210323777424,0.02627413621367354,0.4318356262493496,0.04720106908519255
22,0,-0.02804207684162257,0.22078709750338665,0.08275426482929311,0.2466354433043723
22,1,0.08408120090096013,0.29473411579044717,0.036683500713955125,0.37413116561779985
22,2,0.06303641433829563,-0.006324262270725992,-0.04689201295167341,0.14135086954661702
22,3,,,,
22,4,-0.010254846244329471,0.08844497804562838,-0.036302882934931016,0.30089143711365746
22,5,0.0013795565493447215,0.09361624742905407,-0.07052118964205516,0.28482937429424987
22,6,-0.019935103636571517,0.06705909146968801,0.004121678672117206,0.2838179217914257
22,7,,,,
22,8,0.05293097825174465,0.10139922527480352,0.04065057029282979,0.16657303304046778
22,9,,,,
22,10,,,,
22,11,,,,
22,12,,,,
22,13,,,,
23,0,0.055632054278442374,0.22436697795993504,-0.19840002854712335,0.2428501216031768
23,1,,,,
23,2,,,,
23,3,0.12414649968172235,0.04066009412212749,-0.016031626673601446,-0.02970969772483109
23,4,,,,
23,5,-0.22691586920182172,-0.1464256757580413,-0.11037574497282844,0.42646929148704993
23,6,0.582328832035165,0.04737008103025942,0.09292201972344084,0.12295190936286941
23,7,0.2393095990867713,0.13780519423472287,0.17916273960314655,0.20836607917640987
23,8,0.270353938755613,-0.0037181065095585448,0.10201707893885806,0.09716002663601557
23,9,0.4590949287592326,0.0958949134702518,0.24725253932033783,0.07570551209007839
23,10,,,,
23,11,,,,
23,12,,,,
23,13,,,,
24,0,-0.1561985753403734,-0.13955156975258093,0.5080038609401654,-0.058569461960194656
24,1,,,,
24,2,-0.09077308462559718,0.1545731717837255,0.2525262189864679,0.509525040337943
24,3,0.10038427609589363,-0.05950484802874352,0.00613079204334571,0.10081723316075297
24,4,,,,
24,5,0.0019031676293251643,-0.24797759496043062,0.0924016330901669,0.0836640187134624
24,6,0.09908853680885503,-0.11620699690515872,0.19103656178051767,0.3365814324165333
24,7,-0.009607082680416495,-0.2480716151682171,0.07894048374074429,0.14377260038208692
24,8,,,,
24,9,,,,
24,10,,,,
24,11,,,,
24,12,,,,
24,13,,,,
25,0,0.07907430832912854,-0.036919583251072294,0.08972788749604349,0.09637423794919124
25,1,0.07128411522767131,0.12333134979966036,0.08632484697668338,-0.053767056031088334
25,2,,,,
25,3,-0.0009584540832930102,0.08859789346453992,0.1339960848264159,-0.06043679635014576
25,4,,,,
25,5,0.07013288280367173,-0.2240143855418642,-0.15294718476861593,0.038621885972884115
25,6,0.13219720250069736,0.0297180970325408,-0.08466768210111625,0.009329540494507509
25,7,0.04565244868125117,-0.050145860992059324,-0.14044288058954793,-0.03794764882880173
25,8,0.05465038230544852,-0.017876054971589818,-0.15942147139333931,0.020002773257368548
25,9,0.20048393618121058,0.11888353247640679,0.04654889075495627,0.14926408119128767
25,10,-0.0030179177734183348,0.07580413110536602,0.004509732720048914,0.00885391617109504
25,11,-0.06777708104217574,0.13997275513755056,0.09777037197810647,0.020799259944948675
25,12,0.14938317636705412,0.29349653927254504,0.1747536173312237,-0.17393921846308413
25,13,-0.05307819091291584,0.22936076862792404,0.0843224589325383,-0.10895947703671771
26,0,0.05830830346425722,-0.05507217249242034,0.0864155711511132,0.0631871761116199
26,1,0.10275361173229607,0.023223960439323992,0.017961415946615017,0.008872165944548647
26,2,0.01445878930349578,-0.019811802554316325,0.02110185348588643,0.006526168659216935
26,3,0.004863171613541501,0.020558353797889232,0.03720781081256118,0.02806534131040063
26,4,0.009200986329286823,-0.017801875483599506,0.01949639221398262,0.273685579728146
26,5,-0.1274544217317517,-0.23399636622886183,-0.0017297070336697114,-0.10288633520642268
26,6,-0.2100390344012557,-0.10585833913283287,0.12125071960804262,-0.12397642156792263
26,7,-0.116726434321,-0.09218778517715669,0.02602531400103192,-0.0670244925267103
26,8,-0.03433148293333488,-0.12117402628759395,0.12370812895966544,0.023700437448569873
26,9,-0.0725652277952516,-0.12358878926124647,0.11046141567366037,0.08532579964895552
26,10,-0.2339537741574529,0.055059117611204064,0.14557485071790285,-0.22492094554781172
26,11,-0.28267275836587363,0.10359886060123791,0.2635413989491665,-0.3128120510393082
26,12,,,,
26,13,,,,
27,0,0.04345746327963254,0.05595212784739713,-0.11889565597421745,0.04095762596295478
27,1,-0.11044013986199332,-0.02964559699739255,0.035419514638641306,-0.07535922719699786
27,2,0.10267033764507082,0.13850507503589474,-0.07169562791652927,-0.028280978543930746
27,3,-0.14248616820175652,0.0800849786336867,0.04018262951712423,-0.07388483238663336
27,4,-0.01652389126314066,0.042712334601740086,0.08471319806795746,-0.019449737875675582
27,5,-0.0011755981228041684,-0.07078377300103803,-0.07117851007535386,-0.08621058624873149
27,6,-0.10571927925437033,-0.02292857985447648,0.10478642660489446,-0.09281598980856054
27,7,-0.16609602391569733,0.05665522431824122,0.015060555840592738,-0.0908396809061334
27,8,-0.12770011788312954,0.08416315969425418,-0.029205924208590833,-0.06849913371265172
27,9,-0.11425332424382942,0.0841592737187173,0.012056473314128775,-0.046180681922944035
27,10,-0.2032124464885088,0.1430024573271118,0.14765823277765389,-0.08594322552976061
27,11,-0.11732029505424786,-0.0065463083731629864,-0.006758520445374493,-0.12221901126619672
27,12,-0.17663418112641552,0.18021395286266698,0.13281596944105215,-0.03937803936846498
27,13,0.05436200181770006,0.026027598409330485,-0.0004461442033016495,-0.039571367458379636
28,0,0.013386459804876362,-0.03028017448912078,-0.017766034067323227,-0.04055247169542523
28,1,0.0966347055103402,0.03829355488396337,-0.07815512768144721,0.1002915184076701
28,2,0.03493806933425459,-0.08458912786599493,0.07017020929664822,0.012482104092161302
28,3,0.004558971560645491,-0.056427883838576526,-0.03752806900740318,-0.021266266767312927
28,4,-0.004173405633373435,0.0019498126064204629,0.03852245904108943,0.06570875659355613
28,5,0.03381791728365249,0.05295355605892993,0.05627953380156758,0.04779651097330729
28,6,,,,
28,7,,,,
28,8,,,,
28,9,,,,
28,10,,,,
28,11,-0.03879740010513143,0.0006110127463803042,-0.07099579018672364,-0.10569800383327639
28,12,,,,
28,13,,,,
29,0,-0.06067183154040522,0.1703231303779712,-0.04200139174669031,0.2939237751400346
29,1,-0.048067797661687194,0.18211649008883204,-0.14622796849448041,0.28056326127962156
29,2,-0.032662519709192914,-0.046271953680476735,-0.11125455020975786,-0.02734941086488951
29,3,0.012034774648647304,0.0031214575778730517,-0.12921709988509508,-0.013787916356092077
29,4,,,,
29,5,-0.11421206485958313,0.1645893581207693,-0.20931352734109446,0.3103424163659896
29,6,0.05367485384165676,-0.005014861491354121,0.028130398615274617,0.055879553302289046
29,7,0.007226611851831428,0.0004744436004438647,0.006248568229329971,0.01523575550272406
29,8,,,,
29,9,,,,
29,10,-0.014381481065772398,0.007501040915688579,-0.07633396547257632,0.026571697434145662
29,11,0.21472323397663637,0.13412629345822816,0.1809580615162319,0.1535589961581696
29,12,0.027092533292058824,0.03826043926382011,0.03422386112628432,0.017149820464343542
29,13,-0.29102270774974776,-0.34410038215513356,-0.20603931567976086,-0.24803904584994854
